tempo_arduino_micro_s,valor_ADC
500,16
1004,14
1504,16
2000,16
2508,20
3000,22
3508,21
4000,20
4508,13
5000,10
5500,13
6000,18
6500,24
7004,27
7500,30
8000,35
8500,40
9000,41
9500,36
10000,31
10516,22
11036,17
11564,12
12084,11
12612,10
13132,13
13660,12
14180,12
14708,16
15228,20
15756,26
16276,26
16796,23
17316,19
17836,18
18356,18
18876,19
19396,18
19916,17
20436,15
20956,11
21476,12
21996,15
22516,17
23036,22
23564,25
24084,28
24612,32
25132,35
25660,33
26180,28
26708,25
27228,22
27756,16
28276,12
28804,12
29324,10
29852,11
30372,12
30900,12
31420,14
31948,16
32472,18
32996,23
33516,30
34044,24
34564,15
35092,12
35612,11
36140,10
36660,12
37188,13
37708,14
38236,10
38760,12
39284,16
39804,24
40332,26
40852,28
41372,29
41892,30
42412,32
42932,30
43452,27
43972,21
44492,19
45012,17
45532,14
46052,11
46572,10
47092,11
47612,12
48140,15
48660,19
49188,21
49708,22
50236,23
50760,23
51284,19
51804,18
52332,17
52852,21
53380,19
53900,16
54428,13
54948,11
55476,12
55996,14
56524,22
57044,25
57572,28
58096,35
58620,38
59140,37
59668,36
60188,34
60716,28
61240,22
61764,18
62284,12
62812,11
63332,18
63860,19
64384,19
64908,17
65428,18
65948,19
66468,20
66988,22
67508,21
68028,18
68548,15
69068,14
69588,13
70108,14
70628,17
71148,18
71668,12
72192,10
72716,15
73236,23
73764,28
74284,30
74812,31
75332,35
75860,37
76384,32
76908,26
77428,18
77956,12
78476,11
79004,10
79528,10
80052,14
80572,12
81100,13
81620,16
82148,19
82668,18
83196,21
83720,23
84244,21
84764,18
85292,18
85812,17
86340,19
86860,16
87388,15
87908,11
88436,16
88956,21
89484,25
90004,30
90524,36
91044,31
91564,30
92084,32
92604,34
93124,36
93644,30
94164,21
94684,12
95204,10
95724,11
96248,10
96764,10
97292,11
97812,13
98340,15
98860,16
99388,17
99908,19
100436,19
101004,19
101584,21
102156,23
102736,20
103304,17
103880,15
104456,14
105024,11
105600,17
106168,25
106744,28
107312,33
107896,36
108464,33
109040,30
109624,22
110192,17
110768,17
111336,14
111920,12
112492,10
113072,9
113588,11
114160,11
114744,16
115312,18
115896,19
116464,19
117048,19
117616,20
118200,18
118768,20
119344,22
119928,21
120500,22
121080,21
121648,11
122232,14
122804,20
123376,26
123960,30
124528,33
125112,40
125684,37
126264,32
126832,30
127416,23
127988,15
128564,11
129144,11
129712,9
130236,10
130808,12
131392,18
131960,23
132544,22
133112,23
133692,22
134272,22
134840,19
135424,17
135992,16
136576,15
137144,15
137720,12
138304,11
138872,17
139456,30
140028,34
140608,35
141180,33
141760,31
142328,30
142908,30
143488,27
144056,22
144640,13
145208,9
145732,10
146304,13
146888,11
147464,11
148032,18
148616,19
149184,21
149768,18
150336,18
150920,16
151492,14
152068,12
152648,12
153216,16
153800,18
154368,17
154944,13
155512,11
156096,17
156664,26
157240,34
157824,34
158396,31
158976,32
159556,31
160136,28
160712,25
161280,18
161864,13
162432,11
163016,14
163588,15
164168,13
164736,15
165312,13
165880,14
166456,13
167032,16
167600,16
168176,20
168744,21
169320,19
169888,17
170456,15
171032,14
171600,12
172184,13
172752,20
173336,26
173904,32
174488,36
175056,33
175624,35
176208,32
176776,27
177360,24
177928,18
178512,11
179084,11
179664,15
180240,19
180808,17
181392,21
181960,24
182544,20
183112,21
183696,17
184264,14
184840,19
185424,20
185992,19
186576,13
187144,11
187728,11
188296,12
188880,11
189456,18
190024,31
190608,34
191180,35
191760,33
192332,35
192912,30
193480,26
194056,22
194640,18
195208,15
195784,11
196356,11
196936,11
197504,10
198088,15
198664,16
199232,19
199816,21
200388,21
200968,17
201536,20
202120,21
202688,19
203264,20
203848,17
204416,15
205000,11
205568,13
206144,23
206712,27
207288,28
207856,33
208432,31
209016,29
209584,27
210160,21
210728,22
211312,23
211880,19
212456,11
213040,12
213608,12
214192,15
214764,19
215344,18
215912,23
216496,23
217064,21
217640,16
218224,18
218792,22
219376,22
219944,17
220528,13
221096,14
221672,10
222256,16
222828,31
223408,42
223980,42
224560,34
225136,30
225720,25
226288,19
226864,19
227448,23
228016,22
228600,21
229168,18
229752,12
230324,11
230900,11
231480,15
232048,20
232632,24
233204,27
233784,25
234352,22
234936,21
235508,22
236084,21
236664,18
237236,15
237816,13
238388,12
238968,12
239540,26
240116,34
240696,34
241264,32
241848,32
242420,30
243000,26
243572,28
244152,21
244724,19
245300,16
245880,11
246448,11
247032,11
247604,13
248184,19
248752,25
249328,25
249912,22
250484,18
251064,18
251632,19
252216,20
252784,23
253368,20
253940,16
254516,12
255096,12
255668,18
256248,26
256824,26
257400,21
257968,19
258536,22
259112,30
259684,35
260264,36
260832,26
261416,13
261984,12
262568,10
263136,10
263704,10
264288,13
264856,15
265440,16
266008,16
266592,16
267160,14
267736,13
268320,14
268888,17
269472,19
270040,17
270616,21
271184,20
271768,13
272336,13
272912,26
273496,32
274068,35
274648,32
275216,34
275800,37
276372,31
276948,24
277528,18
278096,17
278680,13
279248,10
279832,12
280404,12
280984,15
281552,20
282132,26
282712,22
283284,23
283864,24
284432,22
285016,19
285588,13
286164,15
286744,16
287312,18
287896,14
288468,11
289048,13
289616,19
290200,26
290768,27
291344,30
291928,35
292496,37
293080,32
293652,25
294232,19
294804,15
295376,13
295960,10
296532,11
297112,12
297684,13
298264,16
298832,18
299416,23
299988,26
300564,25
301144,25
301716,22
302296,19
302868,17
303448,13
304020,11
304592,10
305176,11
305748,14
306328,23
306900,23
307480,24
308056,27
308640,25
309208,31
309784,29
310368,27
310940,22
311520,21
312092,15
312672,11
313244,11
313820,11
314400,14
314972,14
315552,16
316124,15
316704,17
317284,16
317864,16
318436,15
319012,17
319592,17
320168,18
320744,20
321312,11
321896,12
322464,17
323040,22
323624,22
324192,29
324776,35
325348,38
325928,33
326500,25
327080,25
327652,24
328228,17
328808,11
329376,11
329952,12
330520,12
331104,17
331672,19
332248,26
332832,26
333400,21
333976,15
334544,13
335128,17
335696,22
336280,22
336848,19
337424,15
338000,11
338568,12
339144,18
339716,30
340296,32
340864,33
341448,33
342024,32
342596,35
343176,35
343748,29
344328,18
344896,16
345480,13
346052,10
346624,14
347208,14
347776,19
348360,19
348928,22
349512,18
350084,18
350664,17
351240,19
351812,26
352392,29
352964,27
353544,21
354116,18
354696,12
355268,11
355840,18
356424,30
356996,35
357576,38
358148,43
358728,43
359304,42
359888,34
360464,30
361032,25
361616,19
362184,14
362768,10
363336,16
363920,16
364492,19
365068,19
365648,19
366216,19
366800,21
367372,21
367952,20
368524,22
369104,17
369680,18
370248,17
370832,14
371404,11
371984,11
372556,16
373136,26
373708,30
374284,35
374864,39
375436,42
376016,37
376588,27
377168,18
377740,11
378320,9
378840,10
379412,14
379992,11
380564,13
381144,13
381716,19
382296,21
382868,21
383444,19
384024,18
384596,15
385176,14
385748,15
386328,26
386900,22
387480,18
388052,11
388624,15
389208,27
389776,43
390360,37
390932,26
391512,23
392084,28
392656,31
393240,29
393812,26
394392,14
394964,12
395544,11
396116,12
396696,12
397276,11
397852,14
398432,16
399004,19
399584,19
400164,23
400744,20
401312,23
401892,24
402472,20
403044,17
403624,14
404196,14
404776,11
405348,11
405928,12
406500,26
407076,34
407656,38
408228,42
408808,37
409380,36
409960,29
410536,18
411104,12
411688,11
412256,13
412832,15
413400,10
413976,12
414548,12
415128,15
415696,16
416272,17
416856,17
417424,17
418008,18
418576,17
419152,16
419724,11
420304,11
420880,11
421448,10
422024,13
422592,22
423176,25
423744,27
424328,27
424896,26
425472,32
426056,32
426628,30
427208,24
427776,17
428360,11
428928,10
429512,13
430088,22
430656,24
431240,23
431808,22
432392,21
432964,19
433544,17
434116,14
434692,13
435272,15
435840,15
436424,14
436992,15
437576,15
438148,10
438728,12
439304,19
439876,24
440456,28
441024,32
441608,33
442176,32
442760,28
443332,28
443908,28
444488,22
445056,16
445640,11
446208,11
446792,12
447364,14
447944,18
448520,23
449092,26
449672,22
450240,19
450824,17
451392,19
451976,17
452548,19
453120,24
453704,20
454276,14
454856,12
455428,22
456008,29
456576,30
457160,28
457736,30
458308,32
458888,30
459456,24
460040,23
460612,23
461192,18
461772,12
462344,11
462928,11
463500,10
464080,11
464648,15
465232,23
465804,32
466384,31
466960,26
467532,19
468112,13
468684,11
469264,12
469836,15
470416,17
470996,17
471572,14
472152,11
472724,26
473304,27
473876,24
474456,23
475028,27
475604,29
476184,40
476756,46
477336,38
477908,24
478488,14
479068,11
479648,11
480228,12
480800,17
481384,18
481952,19
482536,19
483108,18
483688,19
484260,19
484836,22
485416,22
485988,23
486568,24
487140,21
487720,15
488292,14
488872,13
489444,16
490020,26
490600,38
491172,41
491752,35
492332,32
492912,29
493480,28
494056,24
494640,18
495208,14
495792,13
496364,11
496944,9
497464,12
498040,14
498608,17
499184,16
499768,17
500340,17
500920,16
501492,15
502072,19
502652,18
503232,20
503804,17
504380,12
504960,13
505532,17
506112,27
506692,30
507272,32
507852,35
508428,34
509008,32
509580,29
510160,26
510740,17
511320,14
511900,10
512476,13
513056,15
513624,14
514208,15
514776,19
515360,25
515928,30
516512,28
517080,25
517660,21
518240,20
518808,20
519392,15
519964,11
520544,13
521112,14
521692,11
522272,24
522840,33
523424,36
523996,39
524576,35
525148,30
525728,29
526296,32
526876,30
527456,24
528028,20
528608,18
529176,13
529760,12
530332,12
530908,15
531488,14
532060,18
532640,20
533208,23
533792,23
534360,25
534944,24
535516,22
536092,18
536672,15
537244,13
537824,11
538392,12
538976,13
539544,18
540124,20
540704,27
541276,34
541856,33
542428,30
543008,21
543580,23
544160,21
544728,18
545304,14
545888,11
546460,10
547040,11
547612,16
548192,16
548764,18
549340,22
549920,21
550492,18
551072,18
551644,17
552224,17
552804,15
553384,15
553956,18
554532,14
555112,11
555684,15
556264,25
556836,26
557416,31
557988,32
558564,32
559144,30
559716,27
560296,20
560868,14
561448,11
562020,10
562600,10
563172,10
563748,10
564328,15
564896,19
565480,18
566052,16
566632,15
567204,14
567776,19
568360,22
568928,21
569512,20
570084,18
570664,13
571236,12
571816,16
572388,22
572964,25
573544,23
574116,24
574696,25
575268,34
575848,39
576420,36
576992,27
577576,17
578148,14
578728,12
579296,12
579880,10
580452,10
581032,17
581604,20
582180,22
582760,27
583332,30
583912,28
584492,27
585072,17
585644,12
586216,11
586800,11
587372,11
587952,10
588524,11
589104,21
589684,27
590264,33
590836,32
591412,35
591992,35
592568,30
593144,25
593716,18
594296,14
594876,11
595452,10
596032,10
596604,10
597184,10
597756,15
598340,16
598916,20
599496,24
600080,25
600652,25
601232,26
601804,22
602384,19
602956,16
603536,16
604116,13
604692,11
605272,15
605844,28
606424,35
606996,35
607576,32
608156,29
608732,27
609312,32
609884,29
610464,24
611036,16
611616,12
612196,11
612776,11
613356,10
613932,11
614516,14
615084,20
615664,21
616236,23
616816,28
617388,23
617964,14
618544,13
619116,15
619696,19
620268,19
620848,16
621416,11
622000,14
622580,19
623156,26
623736,31
624312,35
624888,38
625468,35
626048,34
626620,31
627196,26
627780,15
628352,10
628928,11
629500,11
630080,11
630660,12
631240,18
631824,18
632396,19
632976,21
633548,25
634132,24
634708,20
635292,21
635868,22
636444,24
637024,20
637596,15
638176,11
638756,15
639336,24
639916,30
640492,31
641072,32
641640,28
642224,29
642792,28
643376,24
643944,22
644528,22
645096,15
645676,12
646256,21
646828,19
647408,17
647980,15
648560,13
649128,14
649708,17
650288,16
650856,11
651440,13
652012,18
652592,15
653164,17
653744,20
654316,14
654892,11
655472,10
656040,18
656624,25
657192,30
657776,32
658344,43
658920,46
659504,40
660072,29
660656,24
661224,18
661808,12
662376,11
662960,10
663532,12
664108,19
664688,19
665256,19
665840,18
666408,20
666984,18
667552,19
668128,17
668712,15
669284,17
669864,18
670436,19
671016,15
671588,11
672168,15
672736,24
673304,28
673888,30
674456,27
675040,28
675612,26
676192,24
676760,24
677340,22
677920,18
678492,11
679072,14
679644,15
680224,11
680792,14
681376,19
681944,19
682520,19
683104,19
683676,21
684256,25
684828,24
685408,20
685980,12
686556,11
687136,11
687708,13
688288,16
688860,21
689440,31
690012,26
690592,25
691164,31
691740,31
692320,33
692892,33
693472,29
694044,20
694624,12
695196,10
695772,12
696352,17
696924,13
697504,13
698076,14
698656,16
699228,20
699808,23
700380,28
700956,27
701536,18
702108,14
702688,17
703260,18
703840,17
704420,14
704992,11
705576,14
706148,23
706728,27
707296,29
707880,31
708452,34
709032,35
709604,34
710180,30
710760,23
711332,19
711912,14
712492,10
713072,17
713644,20
714220,25
714800,18
715372,18
715952,16
716528,16
717104,14
717684,13
718264,13
718836,18
719412,18
719992,14
720564,12
721144,12
721716,11
722296,15
722868,26
723444,32
724024,32
724596,33
725176,28
725748,27
726328,29
726908,29
727488,21
728060,15
728636,13
729216,10
729788,11
730368,11
730940,17
731520,24
732092,24
732668,22
733248,23
733820,19
734400,15
734972,22
735552,26
736132,24
736712,18
737288,20
737860,17
738440,11
739008,24
739592,32
740164,39
740744,46
741316,47
741892,42
742472,31
743044,27
743624,21
744196,19
744776,16
745348,11
745928,11
746504,11
747076,12
747656,16
748228,19
748808,25
749376,27
749960,23
750532,20
751108,19
751688,26
752260,25
752840,19
753412,13
753992,11
754572,11
755152,11
755740,17
756312,22
756888,30
757460,26
758040,22
758620,19
759200,21
759772,29
760348,26
760928,19
761500,14
762080,14
762660,15
763240,23
763820,19
764396,14
764976,15
765548,18
766128,21
766700,26
767284,25
767860,15
768444,13
769016,18
769592,26
770176,26
770748,22
771328,12
771900,17
772480,21
773052,23
773628,30
774208,37
774780,36
775360,34
775932,29
776512,34
777092,24
777672,13
778248,11
778816,11
779400,10
779972,10
780552,11
781132,15
781712,20
782284,21
782860,20
783440,22
784012,25
784592,26
785164,19
785744,13
786316,16
786896,13
787480,11
788052,11
788632,12
789204,22
789784,27
790356,27
790940,29
791516,35
792092,39
792672,35
793244,27
793824,19
794404,14
794984,10
795556,11
796132,13
796712,13
797288,13
797864,13
798436,15
799016,16
799596,15
800180,19
800752,24
801332,22
801912,19
802484,22
803064,25
803636,24
804216,11
804788,13
805364,13
805944,21
806516,31
807096,33
807668,26
808248,29
808828,33
809408,31
809980,27
810556,26
811136,23
811708,20
812288,13
812860,10
813440,12
814012,16
814588,19
815168,20
815740,19
816320,21
816892,20
817472,20
818044,20
818624,19
819208,18
819780,15
820360,15
820928,14
821512,11
822080,15
822664,25
823232,30
823808,27
824392,30
824960,41
825544,43
826116,36
826696,25
827264,18
827848,11
828424,11
828992,10
829576,11
830144,11
830728,15
831296,19
831880,21
832452,25
833024,23
833608,17
834176,19
834760,18
835328,15
835912,12
836484,14
837064,14
837640,12
838208,11
838792,15
839364,25
839944,29
840516,27
841096,25
841664,33
842240,41
842824,34
843396,26
843976,21
844548,17
845128,13
845696,11
846280,10
846856,11
847424,15
848008,18
848576,20
849152,21
849724,25
850304,23
850876,24
851452,22
852032,18
852600,15
853184,18
853756,22
854336,16
854916,11
855496,12
856072,22
856644,30
857224,35
857796,38
858376,38
858948,32
859528,28
860100,27
860676,25
861256,19
861828,13
862408,11
862976,14
863560,19
864132,18
864712,17
865288,21
865856,27
866440,27
867008,23
867592,18
868164,15
868744,13
869316,15
869892,22
870472,27
871044,17
871624,12
872196,29
872776,33
873348,26
873928,33
874504,36
875076,35
875656,37
876228,32
876808,28
877376,22
877960,16
878532,11
879108,10
879688,11
880260,13
880840,20
881408,22
881992,20
882564,19
883144,18
883720,16
884292,17
884872,18
885444,18
886024,16
886596,15
887176,15
887748,12
888324,10
888904,18
889476,26
890056,31
890628,33
891208,35
891788,35
892368,35
892952,28
893524,25
894104,19
894676,13
895256,11
895836,12
896420,10
896992,14
897572,19
898152,21
898724,19
899304,20
899876,25
900456,27
901028,27
901604,23
902184,19
902756,19
903336,18
903908,12
904488,15
905056,30
905640,39
906208,50
906788,59
907368,65
907940,67
908520,67
909100,64
909680,55
910252,39
910828,23
911408,15
911980,10
912560,16
913132,18
913712,21
914284,30
914864,41
915436,43
916012,43
916592,40
917164,26
917744,25
918316,26
918896,27
919476,26
920052,18
920632,12
921204,14
921784,31
922356,51
922936,56
923508,54
924088,58
924668,64
925244,67
925824,57
926396,45
926976,32
927556,18
928136,11
928712,11
929292,14
929872,21
930444,31
931024,36
931596,36
932176,37
932756,38
933332,33
933912,28
934484,32
935064,31
935636,28
936216,27
936796,18
937376,12
937956,15
938532,32
939112,50
939688,58
940264,58
940844,61
941424,61
941996,59
942572,52
943152,44
943724,29
944304,11
944876,11
945456,17
946028,20
946608,21
947180,28
947756,32
948336,35
948908,32
949488,35
950068,35
950648,34
951228,31
951804,31
952388,25
952956,21
953536,24
954112,17
954688,17
955268,36
955848,51
956432,55
957008,54
957584,61
958160,64
958736,56
959316,52
959900,47
960476,40
961052,28
961632,13
962204,12
962784,22
963356,27
963936,37
964508,40
965084,46
965664,47
966236,46
966816,44
967388,38
967968,30
968540,24
969120,17
969692,15
970268,13
970848,11
971420,17
972000,35
972580,50
973160,59
973740,59
974316,59
974896,59
975468,58
976048,47
976620,38
977200,28
977780,18
978360,11
978940,12
979516,20
980096,25
980668,32
981248,38
981828,43
982408,45
982988,42
983564,37
984144,33
984716,32
985296,28
985868,27
986448,25
987020,22
987600,12
988176,15
988744,36
989328,59
989900,65
990480,65
991060,64
991640,64
992220,58
992796,47
993376,37
993948,25
994528,15
995100,11
995680,21
996260,22
996836,30
997416,41
997988,43
998568,40
999140,39
999720,35
1000292,38
1000916,35
1001548,24
1002168,19
1002796,22
1003420,20
1004044,13
1004672,18
1005292,40
1005920,57
1006544,61
1007164,60
1007796,60
1008416,64
1009044,54
1009672,42
1010296,32
1010924,19
1011548,11
1012176,14
1012808,23
1013424,22
1014052,32
1014676,41
1015300,45
1015932,44
1016552,41
1017180,35
1017804,28
1018428,26
1019060,23
1019680,32
1020308,31
1020940,15
1021560,19
1022188,40
1022812,59
1023444,66
1024076,68
1024692,70
1025320,65
1025940,54
1026564,37
1027192,21
1027808,13
1028436,10
1029056,16
1029680,21
1030308,24
1030928,29
1031556,31
1032176,37
1032800,39
1033428,39
1034052,38
1034680,43
1035308,42
1035928,37
1036556,23
1037180,12
1037808,27
1038436,38
1039056,53
1039684,62
1040304,62
1040928,65
1041556,68
1042176,63
1042804,51
1043428,35
1044048,20
1044676,11
1045292,13
1045920,23
1046552,25
1047168,37
1047796,43
1048420,47
1049048,47
1049676,42
1050292,38
1050920,33
1051544,32
1052168,33
1052796,32
1053416,29
1054044,14
1054668,15
1055292,40
1055920,59
1056540,67
1057168,72
1057788,72
1058416,72
1059044,60
1059668,49
1060296,32
1060924,16
1061544,11
1062172,18
1062796,24
1063424,27
1064052,34
1064672,40
1065300,44
1065924,45
1066544,47
1067172,43
1067792,37
1068420,36
1069044,31
1069668,24
1070296,19
1070916,12
1071548,24
1072176,44
1072800,58
1073428,58
1074052,61
1074680,69
1075308,68
1075924,63
1076556,43
1077176,22
1077800,12
1078428,11
1079044,21
1079676,19
1080300,23
1080920,31
1081552,40
1082168,47
1082796,45
1083428,42
1084048,40
1084676,35
1085300,30
1085928,28
1086556,24
1087176,22
1087804,13
1088428,30
1089052,50
1089680,65
1090296,70
1090924,64
1091548,60
1092168,51
1092800,52
1093416,45
1094044,27
1094672,15
1095296,12
1095924,19
1096548,27
1097176,36
1097804,38
1098424,42
1099052,45
1099676,48
1100300,49
1100928,42
1101552,36
1102180,33
1102804,24
1103424,16
1104056,12
1104672,28
1105300,52
1105932,66
1106552,64
1107180,61
1107804,67
1108432,68
1109064,59
1109680,43
1110308,23
1110932,14
1111560,12
1112188,20
1112808,26
1113436,34
1114060,48
1114684,49
1115316,49
1115936,51
1116568,37
1117196,25
1117816,26
1118444,21
1119068,27
1119700,27
1120328,26
1120952,13
1121580,23
1122204,46
1122828,63
1123456,77
1124072,80
1124704,78
1125328,69
1125952,51
1126580,34
1127196,20
1127828,13
1128456,13
1129072,20
1129700,19
1130324,34
1130952,43
1131580,42
1132200,41
1132828,37
1133452,35
1134080,39
1134708,42
1135328,36
1135956,33
1136584,25
1137208,12
1137836,23
1138456,41
1139084,57
1139708,63
1140336,65
1140964,67
1141588,67
1142220,59
1142848,47
1143464,31
1144096,14
1144720,10
1145348,13
1145980,20
1146600,25
1147228,40
1147852,45
1148476,53
1149104,46
1149728,45
1150356,41
1150988,36
1151608,29
1152236,25
1152860,20
1153488,16
1154116,11
1154736,21
1155364,43
1155988,54
1156612,61
1157244,62
1157864,72
1158492,71
1159112,61
1159736,48
1160368,27
1160984,13
1161612,14
1162236,21
1162860,23
1163488,24
1164112,26
1164740,35
1165372,48
1165992,60
1166620,57
1167244,48
1167876,43
1168504,32
1169120,29
1169752,30
1170372,24
1170996,12
1171628,20
1172248,43
1172876,54
1173500,58
1174128,70
1174756,89
1175380,89
1176012,71
1176640,51
1177256,31
1177888,15
1178512,14
1179140,19
1179768,22
1180392,33
1181020,40
1181644,45
1182268,46
1182900,56
1183520,53
1184148,47
1184776,38
1185400,32
1186028,25
1186652,20
1187280,11
1187912,29
1188528,48
1189156,63
1189780,64
1190404,63
1191036,64
1191656,66
1192284,61
1192908,46
1193532,23
1194164,10
1194784,11
1195412,15
1196044,19
1196664,23
1197292,30
1197916,39
1198548,46
1199180,50
1199800,53
1200432,51
1201052,42
1201676,27
1202308,26
1202928,27
1203556,24
1204180,11
1204804,29
1205432,51
1206052,66
1206680,67
1207308,67
1207928,69
1208556,61
1209180,47
1209812,36
1210440,29
1211056,17
1211688,11
1212312,17
1212936,24
1213564,30
1214184,38
1214812,45
1215436,53
1216064,51
1216692,42
1217312,40
1217940,44
1218572,36
1219192,28
1219820,21
1220444,15
1221076,13
1221708,28
1222328,53
1222960,65
1223580,67
1224208,69
1224836,72
1225456,71
1226088,57
1226708,37
1227336,20
1227964,10
1228584,17
1229216,21
1229844,20
1230460,33
1231092,38
1231716,41
1232344,36
1232972,39
1233592,40
1234220,44
1234844,43
1235468,34
1236096,31
1236712,28
1237344,15
1237968,16
1238592,35
1239220,46
1239840,57
1240468,68
1241096,72
1241720,75
1242348,68
1242972,49
1243600,30
1244228,17
1244848,14
1245476,10
1246100,13
1246724,21
1247356,32
1247976,45
1248608,55
1249228,52
1249852,47
1250484,38
1251104,39
1251732,36
1252364,26
1252984,21
1253612,17
1254236,11
1254868,27
1255496,51
1256116,64
1256744,69
1257368,67
1257992,67
1258620,64
1259240,52
1259868,32
1260492,15
1261116,11
1261748,18
1262368,25
1262996,24
1263628,31
1264248,35
1264876,43
1265500,47
1266132,46
1266760,36
1267384,35
1268012,30
1268636,25
1269260,29
1269892,24
1270512,16
1271140,13
1271764,37
1272388,55
1273020,57
1273640,64
1274268,74
1274900,78
1275520,65
1276148,49
1276776,31
1277404,12
1278036,14
1278656,21
1279288,25
1279912,24
1280536,33
1281164,40
1281780,42
1282408,43
1283032,47
1283652,47
1284284,42
1284900,36
1285532,37
1286160,32
1286776,27
1287404,13
1288028,24
1288656,49
1289284,59
1289904,62
1290532,73
1291156,76
1291780,81
1292412,72
1293032,49
1293660,28
1294280,13
1294904,12
1295532,17
1296152,23
1296780,26
1297404,35
1298024,43
1298652,43
1299276,47
1299904,52
1300536,48
1301152,40
1301780,32
1302404,25
1303032,23
1303660,17
1304280,15
1304908,32
1305532,55
1306156,65
1306788,66
1307408,63
1308036,66
1308660,65
1309284,52
1309912,33
1310536,17
1311168,15
1311796,10
1312416,18
1313044,19
1313664,27
1314292,41
1314920,48
1315536,49
1316164,47
1316788,41
1317408,37
1318040,34
1318656,32
1319284,29
1319908,24
1320528,13
1321156,12
1321776,26
1322404,53
1323032,69
1323648,76
1324276,81
1324900,77
1325528,65
1326156,46
1326776,33
1327404,17
1328028,11
1328648,17
1329276,22
1329896,25
1330524,36
1331148,41
1331772,45
1332400,47
1333016,50
1333644,44
1334268,39
1334888,38
1335516,35
1336140,29
1336768,20
1337400,11
1338016,25
1338644,45
1339268,61
1339896,60
1340524,57
1341144,63
1341772,65
1342396,52
1343020,37
1343648,26
1344264,17
1344896,14
1345516,12
1346140,17
1346768,22
1347384,39
1348012,47
1348640,49
1349256,47
1349884,40
1350508,36
1351136,39
1351764,34
1352384,28
1353012,20
1353632,13
1354256,17
1354884,34
1355504,56
1356132,59
1356756,59
1357380,65
1358008,64
1358624,59
1359256,50
1359884,28
1360504,11
1361132,11
1361756,17
1362384,19
1363012,17
1363632,29
1364260,36
1364884,35
1365508,35
1366140,38
1366760,37
1367388,35
1368012,34
1368632,31
1369260,24
1369880,20
1370508,12
1371132,16
1371760,37
1372388,54
1373012,58
1373640,59
1374272,57
1374888,59
1375516,54
1376140,37
1376768,30
1377400,22
1378016,14
1378644,14
1379268,20
1379892,24
1380520,36
1381136,41
1381764,45
1382388,47
1383012,45
1383640,41
1384264,35
1384892,33
1385520,31
1386144,23
1386772,16
1387396,13
1388028,28
1388656,46
1389272,56
1389900,59
1390524,57
1391148,58
1391780,54
1392400,51
1393028,39
1393652,27
1394276,13
1394904,11
1395528,21
1396156,32
1396784,44
1397400,48
1398032,44
1398656,36
1399284,36
1399912,31
1400536,23
1401164,22
1401788,23
1402412,27
1403040,28
1403656,17
1404284,13
1404908,28
1405532,51
1406160,66
1406784,71
1407412,71
1408044,68
1408660,65
1409288,47
1409912,26
1410540,11
1411172,10
1411792,13
1412420,23
1413044,29
1413668,36
1414296,39
1414920,41
1415548,39
1416172,42
1416796,35
1417424,31
1418040,26
1418672,25
1419300,25
1419920,21
1420548,11
1421172,22
1421804,39
1422432,56
1423048,60
1423680,61
1424300,58
1424924,63
1425556,51
1426176,40
1426804,27
1427428,18
1428052,11
1428680,14
1429304,26
1429932,27
1430564,32
1431184,40
1431812,42
1432440,43
1433068,38
1433700,34
1434316,30
1434948,29
1435568,27
1436192,24
1436820,19
1437440,12
1438068,26
1438692,39
1439316,55
1439944,62
1440564,60
1441192,60
1441820,59
1442440,53
1443068,40
1443692,31
1444320,21
1444948,10
1445568,18
1446196,24
1446820,33
1447440,46
1448072,47
1448688,49
1449316,45
1449940,36
1450560,37
1451192,33
1451808,28
1452436,27
1453068,20
1453688,13
1454316,18
1454940,31
1455568,47
1456200,55
1456816,65
1457444,68
1458068,65
1458692,57
1459324,48
1459944,38
1460572,25
1461196,16
1461816,10
1462448,19
1463064,23
1463692,31
1464316,36
1464944,40
1465572,46
1466196,45
1466828,45
1467456,42
1468080,37
1468708,37
1469332,36
1469960,29
1470588,13
1471208,19
1471836,44
1472464,61
1473088,65
1473716,66
1474336,68
1474964,68
1475596,62
1476216,49
1476844,29
1477468,16
1478096,11
1478724,16
1479344,25
1479972,25
1480596,32
1481220,41
1481852,46
1482472,47
1483100,47
1483724,44
1484348,37
1484976,32
1485596,31
1486228,25
1486856,16
1487472,14
1488100,31
1488724,53
1489352,66
1489980,71
1490600,73
1491228,69
1491852,54
1492480,36
1493108,22
1493728,15
1494356,11
1494984,11
1495608,11
1496236,20
1496856,35
1497484,47
1498108,46
1498736,42
1499364,36
1499988,36
1500616,38
1501248,34
1501864,26
1502496,22
1503120,17
1503748,11
1504380,16
1505000,41
1505628,57
1506252,58
1506876,59
1507508,71
1508128,75
1508756,59
1509388,27
1510008,13
1510636,11
1511260,11
1511892,11
1512524,14
1513144,21
1513772,30
1514400,40
1515020,43
1515652,40
1516272,44
1516900,37
1517524,35
1518148,30
1518780,26
1519400,24
1520028,21
1520660,11
1521280,25
1521908,46
1522532,61
1523164,63
1523792,60
1524416,61
1525044,60
1525668,49
1526292,37
1526924,20
1527544,13
1528172,11
1528796,15
1529424,22
1530052,31
1530672,40
1531304,41
1531932,37
1532552,41
1533184,47
1533808,43
1534436,37
1535068,36
1535688,33
1536320,22
1536940,12
1537564,18
1538192,38
1538808,58
1539440,60
1540060,60
1540684,59
1541312,58
1541936,52
1542564,39
1543192,25
1543812,17
1544440,13
1545064,11
1545692,15
1546320,20
1546944,27
1547572,32
1548196,40
1548820,43
1549448,43
1550064,40
1550692,38
1551316,35
1551944,31
1552572,26
1553192,21
1553820,12
1554452,20
1555072,44
1555704,57
1556328,61
1556956,66
1557584,58
1558208,55
1558836,46
1559460,33
1560084,20
1560716,12
1561336,13
1561964,11
1562588,11
1563212,21
1563840,37
1564460,48
1565088,48
1565716,40
1566336,37
1566964,40
1567588,47
1568220,43
1568848,30
1569464,22
1570092,12
1570716,16
1571340,32
1571972,50
1572592,57
1573220,57
1573844,57
1574468,59
1575100,60
1575720,47
1576348,29
1576980,15
1577600,11
1578228,11
1578852,15
1579484,18
1580112,32
1580736,43
1581368,40
1581992,32
1582616,27
1583244,28
1583864,37
1584496,40
1585120,31
1585744,25
1586372,23
1586992,16
1587624,12
1588252,22
1588872,40
1589500,53
1590124,59
1590756,58
1591384,60
1592008,56
1592636,45
1593260,35
1593888,22
1594516,12
1595136,13
1595768,22
1596392,24
1597016,35
1597648,40
1598264,42
1598892,46
1599524,40
1600144,41
1600772,35
1601392,23
1602020,17
1602652,18
1603268,16
1603900,16
1604520,32
1605144,43
1605772,50
1606392,53
1607020,51
1607644,51
1608268,54
1608896,51
1609512,41
1610144,26
1610772,16
1611392,9
1611968,17
1612600,24
1613228,25
1613860,30
1614480,30
1615108,37
1615732,41
1616360,38
1616992,30
1617608,29
1618236,28
1618860,31
1619484,23
1620112,15
1620728,12
1621360,23
1621984,38
1622604,47
1623236,52
1623856,58
1624484,53
1625116,46
1625736,37
1626364,28
1626988,20
1627616,12
1628248,10
1628864,13
1629492,19
1630116,28
1630740,31
1631372,32
1631992,36
1632624,41
1633248,40
1633872,37
1634500,34
1635120,25
1635752,17
1636380,11
1637000,11
1637628,15
1638252,27
1638884,39
1639512,48
1640128,55
1640756,54
1641376,55
1642000,51
1642628,40
1643244,27
1643872,14
1644496,11
1645116,13
1645744,20
1646368,25
1646996,27
1647624,28
1648240,34
1648868,31
1649488,30
1650116,33
1650744,32
1651360,32
1651988,31
1652612,34
1653240,32
1653868,21
1654484,14
1655112,37
1655736,50
1656360,54
1656988,62
1657608,62
1658236,55
1658860,52
1659480,43
1660108,27
1660728,13
1661356,11
1661984,16
1662600,23
1663232,26
1663852,29
1664484,28
1665112,26
1665728,33
1666356,36
1666980,31
1667600,27
1668228,24
1668844,20
1669476,20
1670096,23
1670716,13
1671348,20
1671968,40
1672596,41
1673224,43
1673848,51
1674476,55
1675100,52
1675728,45
1676356,31
1676976,22
1677604,13
1678224,10
1678852,18
1679484,20
1680104,24
1680728,24
1681352,24
1681972,24
1682600,26
1683220,35
1683848,40
1684472,37
1685096,32
1685724,23
1686344,14
1686976,11
1687604,14
1688224,23
1688852,28
1689476,35
1690104,36
1690732,38
1691352,41
1691980,36
1692604,29
1693224,30
1693852,23
1694472,15
1695100,11
1695724,14
1696348,12
1696976,18
1697592,21
1698220,29
1698848,31
1699468,33
1700096,25
1700716,17
1701344,20
1701976,26
1702592,27
1703220,19
1703844,11
1704464,17
1705092,30
1705712,35
1706340,33
1706964,28
1707584,27
1708216,27
1708832,27
1709460,18
1710088,18
1710712,13
1711340,11
1711964,11
1712596,10
1713224,13
1713844,13
1714472,17
1715096,24
1715720,31
1716348,34
1716968,27
1717596,18
1718220,13
1718844,18
1719472,18
1720096,13
1720724,11
1721352,18
1721976,33
1722604,34
1723228,28
1723856,30
1724484,34
1725104,27
1725732,20
1726356,17
1726984,13
1727612,14
1728232,13
1728860,11
1729484,12
1730104,14
1730736,18
1731352,22
1731980,21
1732604,18
1733232,19
1733860,20
1734484,22
1735112,21
1735740,17
1736360,14
1736988,13
1737612,11
1738240,13
1738868,22
1739488,28
1740116,35
1740744,34
1741368,34
1741996,30
1742616,29
1743244,20
1743868,11
1744496,11
1745124,10
1745748,11
1746376,12
1747004,15
1747624,19
1748252,19
1748876,21
1749504,19
1750132,15
1750752,22
1751380,24
1752004,25
1752628,28
1753256,23
1753880,13
1754508,12
1755132,20
1755760,25
1756388,26
1757012,29
1757644,39
1758272,41
1758896,30
1759524,17
1760148,24
1760772,23
1761404,14
1762020,12
1762652,13
1763272,16
1763896,17
1764524,14
1765144,15
1765772,15
1766396,16
1767020,18
1767648,21
1768272,19
1768900,20
1769528,21
1770148,19
1770776,15
1771400,13
1772028,25
1772660,28
1773280,32
1773908,33
1774532,33
1775156,34
1775788,33
1776408,25
1777036,18
1777660,14
1778288,12
1778916,10
1779540,10
1780168,15
1780800,20
1781416,24
1782044,30
1782668,29
1783300,18
1783928,17
1784548,18
1785176,17
1785800,20
1786424,19
1787052,16
1787672,11
1788300,17
1788924,24
1789552,23
1790180,24
1790808,30
1791436,33
1792068,30
1792684,21
1793312,12
1793936,11
1794564,13
1795192,14
1795812,14
1796440,11
1797064,13
1797688,14
1798316,18
1798936,23
1799564,19
1800188,18
1800816,20
1801444,21
1802068,23
1802696,21
1803328,16
1803944,11
1804572,14
1805196,23
1805824,27
1806452,30
1807072,30
1807700,33
1808324,34
1808944,30
1809572,23
1810192,17
1810820,13
1811444,11
1812068,12
1812696,17
1813320,17
1813948,19
1814576,23
1815200,25
1815828,22
1816452,21
1817080,15
1817712,14
1818328,20
1818956,24
1819580,18
1820204,11
1820832,14
1821448,21
1822080,32
1822704,36
1823328,34
1823956,30
1824580,29
1825212,30
1825840,28
1826456,28
1827084,17
1827708,10
1828340,15
1828968,18
1829584,17
1830212,19
1830840,19
1831460,21
1832092,18
1832712,17
1833340,14
1833964,13
1834588,15
1835220,18
1835844,16
1836472,15
1837104,11
1837720,11
1838348,17
1838976,24
1839604,26
1840236,30
1840856,35
1841484,37
1842108,39
1842732,34
1843364,22
1843980,16
1844612,11
1845232,11
1845856,17
1846484,17
1847104,20
1847736,22
1848364,22
1848984,21
1849612,24
1850232,23
1850860,22
1851492,20
1852112,21
1852740,17
1853364,12
1853988,11
1854620,12
1855240,24
1855868,33
1856492,35
1857116,33
1857748,33
1858368,30
1859000,29
1859628,26
1860248,18
1860876,14
1861500,11
1862128,13
1862756,12
1863376,14
1864004,14
1864628,15
1865252,19
1865880,22
1866496,23
1867128,23
1867752,21
1868376,15
1869004,14
1869624,18
1870252,15
1870880,13
1871504,13
1872132,22
1872756,23
1873388,26
1874016,30
1874632,27
1875264,25
1875888,28
1876508,21
1877140,19
1877760,23
1878388,19
1879012,11
1879640,12
1880268,16
1880888,21
1881516,21
1882148,20
1882768,22
1883396,21
1884020,21
1884652,17
1885280,12
1885904,13
1886532,14
1887156,11
1887780,16
1888412,22
1889032,27
1889660,27
1890284,31
1890908,38
1891536,36
1892156,32
1892784,25
1893412,15
1894032,11
1894664,13
1895284,18
1895916,15
1896544,18
1897168,23
1897796,20
1898420,19
1899044,17
1899672,16
1900296,16
1900924,15
1901548,15
1902172,22
1902804,19
1903428,15
1904056,12
1904688,19
1905304,27
1905932,33
1906556,31
1907188,33
1907820,39
1908440,37
1909068,24
1909692,15
1910320,13
1910948,11
1911568,11
1912200,13
1912824,10
1913448,15
1914076,23
1914704,33
1915336,39
1915964,28
1916584,19
1917216,15
1917840,13
1918472,16
1919100,10
1919720,10
1920352,17
1920976,22
1921600,23
1922228,24
1922848,19
1923476,21
1924108,30
1924728,31
1925356,29
1925980,25
1926608,20
1927236,12
1927856,12
1928484,12
1929108,11
1929732,13
1930364,16
1930984,19
1931612,20
1932236,20
1932860,17
1933488,19
1934104,21
1934736,23
1935364,16
1935984,11
1936612,12
1937236,11
1937868,12
1938496,17
1939120,23
1939748,30
1940376,38
1941000,36
1941628,32
1942248,29
1942876,25
1943500,19
1944128,17
1944756,11
1945376,12
1946008,14
1946636,12
1947256,15
1947884,15
1948508,17
1949136,24
1949768,26
1950384,28
1951016,20
1951640,15
1952264,19
1952892,15
1953512,11
1954140,11
1954764,14
1955388,23
1956020,28
1956640,30
1957268,29
1957900,27
1958520,25
1959148,21
1959772,20
1960404,20
1961032,13
1961648,12
1962280,14
1962904,11
1963528,14
1964156,15
1964776,18
1965408,18
1966032,19
1966656,21
1967284,20
1967904,22
1968532,21
1969160,20
1969784,16
1970412,11
1971036,13
1971668,16
1972296,26
1972912,32
1973540,40
1974164,46
1974788,48
1975420,40
1976040,29
1976668,11
1977292,13
1977916,13
1978544,12
1979164,11
1979792,11
1980420,14
1981040,17
1981668,19
1982292,18
1982924,19
1983552,16
1984176,18
1984804,21
1985428,24
1986052,21
1986684,16
1987304,12
1987932,13
1988556,25
1989180,31
1989808,29
1990424,31
1991056,29
1991680,29
1992304,27
1992932,19
1993556,13
1994188,13
1994816,12
1995440,11
1996068,12
1996692,14
1997320,16
1997948,16
1998568,18
1999196,24
1999820,24
2000444,21
2001076,15
2001696,17
2002324,16
2002952,14
2003576,13
2004204,14
2004828,17
2005456,27
2006084,27
2006704,26
2007332,23
2007956,30
2008584,32
2009212,25
2009832,21
2010460,17
2011084,14
2011708,11
2012336,13
2012952,15
2013584,19
2014212,19
2014832,19
2015460,18
2016084,19
2016716,16
2017344,16
2017960,17
2018592,19
2019216,21
2019844,20
2020472,12
2021096,14
2021724,22
2022352,28
2022976,36
2023604,36
2024224,38
2024852,31
2025484,22
2026104,17
2026732,10
2027356,11
2027988,9
2028568,13
2029192,23
2029820,21
2030444,15
2031076,13
2031704,15
2032328,17
2032956,11
2033580,13
2034204,17
2034836,18
2035456,19
2036084,17
2036708,14
2037332,12
2037964,11
2038584,17
2039212,22
2039844,32
2040464,34
2041092,36
2041716,38
2042348,30
2042980,24
2043600,25
2044228,15
2044856,11
2045480,14
2046108,11
2046728,15
2047356,22
2047984,30
2048608,30
2049236,30
2049860,21
2050488,17
2051116,12
2051736,13
2052364,14
2052984,12
2053612,11
2054240,10
2054864,17
2055492,31
2056112,31
2056736,28
2057364,26
2057984,27
2058612,24
2059232,26
2059856,23
2060484,14
2061104,10
2061732,14
2062360,12
2062976,11
2063604,17
2064228,25
2064856,28
2065484,20
2066104,18
2066732,21
2067356,16
2067976,13
2068608,11
2069224,11
2069852,10
2070476,14
2071096,23
2071728,30
2072344,32
2072972,30
2073596,35
2074224,34
2074852,34
2075476,30
2076104,21
2076736,13
2077352,11
2077980,10
2078604,13
2079236,14
2079864,14
2080480,16
2081108,21
2081732,27
2082356,24
2082984,16
2083600,17
2084228,16
2084852,15
2085472,19
2086104,25
2086724,19
2087352,11
2087984,21
2088600,27
2089228,25
2089852,26
2090480,31
2091108,38
2091728,35
2092356,22
2092980,17
2093600,15
2094228,13
2094848,10
2095476,11
2096100,11
2096720,14
2097352,16
2097968,19
2098596,19
2099228,19
2099844,19
2100472,24
2101096,24
2101724,27
2102356,26
2102976,20
2103604,11
2104228,16
2104852,26
2105480,38
2106096,31
2106728,32
2107348,34
2107972,30
2108604,28
2109224,27
2109852,17
2110484,10
2111104,11
2111732,11
2112356,14
2112988,13
2113616,16
2114232,22
2114860,23
2115484,19
2116108,13
2116736,11
2117360,16
2117988,19
2118612,24
2119236,19
2119864,11
2120488,11
2121116,12
2121744,19
2122368,29
2122996,29
2123620,33
2124252,39
2124880,38
2125496,31
2126124,25
2126748,20
2127372,12
2128000,10
2128616,12
2129248,12
2129872,19
2130496,27
2131124,24
2131744,18
2132372,19
2133000,16
2133624,17
2134252,16
2134876,17
2135504,19
2136136,19
2136752,13
2137380,12
2138004,16
2138628,25
2139260,32
2139880,33
2140508,28
2141132,24
2141756,20
2142384,24
2143008,24
2143636,21
2144268,14
2144888,11
2145516,11
2146140,14
2146768,17
2147396,16
2148016,16
2148644,18
2149268,22
2149896,22
2150524,20
2151144,20
2151772,18
2152396,25
2153016,31
2153648,19
2154264,14
2154892,33
2155516,45
2156144,45
2156772,42
2157396,40
2158028,35
2158656,27
2159280,19
2159908,11
2160532,11
2161156,11
2161788,11
2162408,13
2163036,15
2163660,16
2164284,18
2164912,21
2165528,20
2166160,17
2166788,14
2167408,16
2168036,14
2168660,16
2169288,17
2169920,14
2170536,12
2171164,13
2171788,27
2172420,30
2173048,26
2173672,25
2174300,27
2174924,29
2175548,25
2176180,20
2176796,13
2177428,12
2178056,10
2178672,10
2179300,11
2179924,14
2180552,16
2181180,15
2181800,15
2182428,15
2183052,21
2183680,29
2184308,32
2184928,29
2185556,27
2186180,15
2186804,12
2187432,20
2188056,33
2188684,30
2189308,24
2189936,30
2190564,33
2191188,27
2191820,26
2192452,24
2193072,24
2193700,21
2194324,11
2194948,13
2195580,12
2196200,11
2196828,13
2197452,15
2198076,18
2198708,18
2199328,19
2199956,19
2200588,25
2201208,28
2201836,18
2202460,11
2203092,13
2203720,11
2204340,13
2204968,23
2205592,28
2206216,27
2206844,29
2207464,30
2208092,32
2208716,27
2209340,24
2209968,20
2210592,20
2211220,13
2211852,10
2212472,19
2213100,20
2213724,16
2214356,15
2214984,18
2215608,19
2216236,17
2216860,20
2217484,21
2218116,17
2218736,12
2219364,11
2219988,11
2220612,13
2221244,11
2221864,16
2222492,18
2223124,22
2223744,36
2224376,43
2224996,40
2225628,30
2226256,22
2226880,13
2227508,11
2228132,11
2228756,12
2229388,14
2230008,19
2230636,21
2231264,26
2231888,22
2232516,18
2233136,17
2233764,24
2234396,28
2235016,18
2235644,11
2236272,12
2236900,20
2237532,22
2238152,13
2238784,35
2239408,35
2240032,43
2240660,44
2241280,27
2241908,11
2242532,32
2243156,58
2243788,40
2244408,17
2245036,11
2245668,11
2246288,12
2246916,15
2247540,21
2248172,27
2248800,31
2249420,27
2250048,21
2250672,21
2251296,24
2251924,17
2252544,12
2253176,11
2253796,20
2254420,34
2255048,53
2255672,56
2256300,50
2256932,54
2257552,70
2258180,57
2258804,39
2259432,28
2260064,17
2260680,11
2261308,12
2261932,13
2262556,17
2263188,29
2263808,39
2264436,35
2265060,32
2265684,35
2266312,36
2266936,37
2267564,33
2268196,25
2268816,19
2269444,16
2270068,11
2270700,25
2271328,46
2271948,61
2272580,62
2273204,58
2273828,65
2274456,65
2275076,50
2275704,41
2276328,28
2276952,19
2277580,15
2278200,11
2278832,14
2279460,19
2280080,41
2280708,56
2281332,51
2281964,37
2282592,35
2283212,31
2283840,37
2284464,30
2285088,27
2285716,23
2286336,16
2286964,12
2287588,27
2288216,49
2288844,56
2289464,60
2290092,60
2290724,64
2291344,70
2291976,58
2292600,40
2293228,23
2293860,10
2294480,21
2295108,21
2295732,14
2296356,21
2296984,37
2297600,43
2298232,45
2298856,41
2299480,35
2300108,33
2300728,33
2301360,31
2301988,27
2302608,18
2303240,12
2303864,17
2304496,30
2305124,44
2305744,57
2306372,65
2306996,70
2307620,69
2308248,58
2308864,47
2309492,32
2310116,16
2310740,11
2311368,16
2311988,19
2312616,18
2313244,31
2313864,37
2314492,42
2315116,40
2315748,39
2316376,38
2317000,41
2317628,33
2318252,29
2318876,24
2319504,18
2320128,11
2320756,23
2321380,42
2322004,51
2322632,52
2323252,57
2323880,65
2324508,64
2325128,51
2325756,37
2326380,21
2327012,12
2327640,12
2328260,14
2328888,20
2329512,33
2330140,47
2330768,42
2331384,31
2332016,38
2332640,31
2333264,24
2333892,26
2334512,29
2335144,29
2335772,24
2336392,23
2337020,12
2337644,34
2338272,61
2338904,71
2339520,70
2340152,69
2340776,71
2341400,63
2342028,48
2342648,34
2343276,17
2343900,11
2344524,16
2345156,22
2345776,23
2346404,39
2347036,48
2347656,49
2348284,44
2348908,42
2349540,34
2350172,32
2350792,33
2351424,25
2352048,24
2352672,27
2353300,17
2353920,15
2354548,37
2355176,58
2355800,66
2356432,66
2357048,64
2357680,60
2358308,48
2358928,35
2359556,19
2360184,11
2360812,11
2361444,12
2362064,19
2362692,25
2363316,33
2363944,33
2364572,38
2365192,42
2365824,44
2366448,40
2367072,40
2367700,41
2368324,38
2368956,31
2369584,26
2370208,11
2370836,35
2371460,56
2372092,63
2372720,61
2373344,67
2373976,69
2374600,61
2375224,52
2375856,42
2376472,28
2377100,17
2377724,10
2378352,16
2378980,21
2379604,33
2380236,44
2380864,44
2381488,42
2382116,37
2382740,40
2383364,40
2383996,30
2384616,27
2385244,22
2385872,17
2386496,12
2387124,18
2387744,34
2388376,46
2389004,52
2389624,57
2390256,60
2390880,61
2391508,53
2392140,42
2392760,34
2393392,25
2394016,18
2394640,12
2395268,21
2395888,25
2396520,35
2397144,44
2397768,48
2398396,46
2399016,41
2399648,35
2400280,28
2400896,27
2401524,29
2402148,31
2402780,24
2403408,11
2404028,22
2404656,43
2405280,58
2405904,64
2406536,63
2407152,64
2407780,60
2408404,49
2409028,35
2409656,18
2410272,11
2410904,16
2411532,22
2412152,23
2412784,32
2413408,39
2414036,41
2414668,42
2415288,36
2415920,28
2416544,27
2417168,31
2417796,32
2418416,32
2419044,24
2419668,17
2420292,11
2420924,30
2421544,49
2422176,55
2422804,64
2423424,71
2424056,71
2424676,57
2425308,48
2425936,40
2426560,25
2427188,12
2427816,11
2428440,22
2429068,27
2429688,34
2430316,37
2430944,39
2431568,41
2432200,35
2432816,33
2433444,35
2434076,37
2434696,37
2435324,39
2435948,33
2436580,13
2437208,20
2437832,45
2438460,63
2439084,64
2439708,62
2440340,66
2440960,69
2441588,59
2442212,47
2442840,29
2443468,14
2444088,11
2444716,15
2445348,22
2445968,28
2446596,36
2447224,40
2447852,39
2448484,43
2449104,43
2449732,39
2450360,37
2450984,32
2451612,31
2452232,28
2452864,19
2453488,11
2454112,27
2454740,47
2455368,57
2455996,61
2456632,64
2457248,64
2457880,59
2458504,46
2459132,33
2459760,18
2460384,15
2461012,11
2461636,24
2462260,25
2462888,30
2463504,43
2464136,55
2464756,59
2465380,55
2466012,39
2466632,21
2467260,13
2467892,12
2468512,19
2469140,18
2469764,11
2470392,22
2471024,45
2471640,59
2472268,60
2472892,62
2473516,66
2474148,66
2474768,56
2475396,42
2476024,25
2476648,11
2477276,11
2477900,15
2478532,17
2479160,16
2479784,28
2480412,32
2481036,40
2481668,44
2482296,46
2482912,36
2483544,36
2484168,34
2484788,30
2485420,24
2486040,19
2486668,11
2487292,14
2487920,39
2488548,51
2489172,53
2489804,56
2490432,51
2491052,53
2491680,46
2492304,40
2492932,39
2493564,26
2494184,15
2494812,12
2495436,20
2496064,27
2496692,30
2497312,39
2497940,48
2498572,52
2499192,49
2499820,37
2500444,33
2501076,29
2501704,24
2502328,22
2502956,13
2503584,14
2504208,29
2504836,50
2505456,61
2506084,69
2506708,66
2507336,64
2507964,60
2508584,46
2509216,25
2509844,10
2510464,11
2511092,12
2511716,14
2512348,19
2512976,36
2513600,43
2514228,41
2514852,44
2515476,48
2516108,44
2516728,47
2517356,45
2517984,34
2518608,25
2519240,14
2519856,12
2520488,24
2521116,50
2521736,62
2522364,61
2522988,58
2523620,62
2524252,67
2524872,59
2525500,47
2526124,32
2526752,17
2527380,10
2528000,11
2528628,15
2529252,22
2529880,33
2530508,36
2531128,44
2531760,53
2532388,54
2533008,48
2533640,44
2534264,41
2534896,37
2535524,30
2536144,28
2536772,14
2537400,38
2538024,57
2538656,67
2539272,74
2539904,69
2540528,64
2541152,64
2541780,53
2542408,37
2543036,23
2543668,11
2544288,14
2544916,22
2545544,27
2546172,38
2546804,42
2547424,46
2548052,48
2548680,37
2549304,31
2549932,28
2550552,27
2551184,31
2551816,30
2552432,25
2553064,21
2553688,13
2554316,39
2554948,62
2555568,67
2556200,66
2556824,65
2557448,62
2558080,53
2558696,41
2559328,28
2559956,16
2560584,11
2561208,12
2561828,21
2562456,25
2563088,33
2563704,37
2564332,41
2564956,44
2565584,46
2566212,44
2566832,43
2567460,40
2568084,41
2568708,34
2569336,27
2569960,13
2570588,28
2571212,52
2571832,59
2572464,59
2573080,67
2573708,74
2574332,73
2574960,57
2575588,39
2576212,29
2576840,13
2577472,17
2578088,24
2578716,21
2579340,25
2579968,33
2580600,40
2581216,43
2581844,45
2582468,41
2583088,40
2583720,36
2584336,32
2584964,27
2585588,16
2586212,12
2586840,13
2587464,26
2588092,53
2588720,63
2589344,63
2589972,66
2590596,66
2591228,61
2591856,52
2592476,37
2593104,17
2593728,11
2594352,17
2594980,23
2595600,20
2596228,27
2596852,35
2597476,43
2598104,48
2598728,42
2599360,43
2599988,42
2600608,33
2601236,26
2601860,23
2602492,17
2603120,11
2603736,21
2604368,40
2604992,58
2605616,61
2606244,60
2606864,63
2607492,63
2608116,60
2608740,47
2609368,29
2609992,17
2610624,10
2611252,16
2611872,21
2612500,23
2613124,35
2613752,40
2614380,42
2615000,45
2615628,44
2616256,44
2616880,45
2617508,40
2618128,35
2618756,30
2619384,23
2620008,11
2620636,32
2621260,48
2621892,56
2622520,65
2623144,65
2623772,62
2624396,59
2625024,52
2625652,42
2626268,28
2626900,17
2627520,13
2628140,26
2628772,26
2629392,31
2630020,41
2630644,46
2631264,44
2631896,44
2632520,38
2633148,29
2633776,26
2634392,27
2635020,25
2635644,21
2636272,15
2636904,14
2637520,34
2638148,53
2638772,60
2639396,61
2640024,65
2640640,62
2641268,50
2641892,38
2642516,31
2643144,21
2643760,15
2644388,11
2645016,15
2645640,22
2646268,31
2646892,40
2647520,45
2648148,44
2648768,47
2649396,42
2650020,41
2650644,38
2651272,33
2651888,32
2652520,27
2653144,13
2653764,18
2654396,37
2655016,54
2655644,63
2656276,68
2656896,75
2657524,70
2658148,56
2658776,43
2659404,27
2660024,17
2660652,10
2661276,14
2661900,23
2662532,27
2663148,34
2663780,38
2664400,44
2665020,48
2665648,42
2666268,41
2666896,40
2667528,39
2668144,33
2668772,24
2669396,16
2670024,13
2670652,28
2671272,47
2671900,61
2672524,64
2673156,69
2673784,70
2674400,70
2675032,59
2675656,42
2676276,27
2676908,14
2677528,11
2678156,19
2678780,26
2679408,37
2680036,42
2680660,45
2681288,53
2681916,49
2682536,43
2683164,36
2683788,33
2684416,32
2685048,28
2685664,22
2686292,13
2686916,16
2687540,34
2688172,58
2688788,66
2689416,66
2690040,67
2690664,63
2691292,53
2691912,38
2692544,25
2693172,12
2693792,13
2694420,17
2695040,23
2695672,25
2696300,31
2696920,37
2697548,48
2698172,50
2698796,44
2699424,38
2700048,35
2700676,30
2701300,21
2701924,15
2702556,11
2703180,19
2703812,30
2704440,42
2705056,55
2705684,59
2706308,63
2706936,62
2707564,62
2708184,50
2708812,36
2709436,21
2710060,13
2710688,11
2711308,18
2711936,25
2712560,30
2713184,39
2713816,47
2714436,46
2715064,46
2715696,44
2716312,41
2716940,36
2717564,32
2718196,31
2718824,23
2719440,13
2720072,17
2720692,33
2721316,51
2721944,64
2722568,71
2723196,72
2723820,74
2724444,69
2725072,54
2725688,41
2726320,24
2726948,10
2727568,15
2728196,23
2728820,29
2729448,41
2730076,44
2730696,48
2731324,41
2731948,35
2732572,34
2733204,32
2733824,32
2734452,31
2735076,31
2735700,27
2736328,15
2736952,19
2737580,43
2738212,58
2738832,61
2739464,62
2740084,63
2740716,60
2741344,52
2741964,41
2742592,30
2743216,17
2743840,11
2744468,15
2745088,24
2745716,24
2746340,37
2746964,43
2747592,47
2748208,43
2748840,44
2749468,42
2750088,39
2750716,33
2751340,25
2751972,19
2752604,14
2753224,14
2753852,27
2754476,45
2755100,62
2755732,66
2756352,69
2756980,65
2757604,61
2758228,57
2758860,42
2759480,27
2760108,13
2760740,13
2761360,21
2761988,23
2762612,31
2763244,36
2763876,42
2764496,42
2765124,44
2765748,43
2766372,40
2767000,35
2767624,35
2768252,32
2768876,26
2769500,15
2770128,16
2770752,35
2771380,49
2772012,56
2772632,61
2773260,63
2773884,66
2774516,60
2775144,48
2775764,33
2776392,17
2777016,11
2777640,15
2778268,22
2778888,25
2779516,33
2780140,39
2780768,45
2781396,50
2782024,47
2782652,35
2783284,29
2783904,27
2784536,27
2785160,27
2785788,19
2786420,10
2787040,25
2787668,43
2788292,58
2788916,65
2789544,64
2790168,69
2790796,64
2791420,56
2792048,44
2792676,25
2793300,12
2793932,12
2794560,17
2795176,25
2795808,30
2796432,40
2797060,45
2797692,44
2798312,46
2798940,47
2799568,41
2800192,34
2800820,28
2801440,27
2802068,21
2802696,18
2803320,12
2803948,27
2804572,49
2805204,62
2805832,69
2806448,71
2807080,68
2807700,60
2808328,48
2808956,34
2809576,25
2810208,15
2810832,11
2811456,16
2812084,20
2812704,33
2813336,41
2813964,44
2814584,47
2815216,48
2815840,44
2816472,39
2817100,34
2817720,29
2818348,29
2818972,21
2819596,12
2820224,17
2820840,31
2821472,49
2822092,60
2822716,67
2823348,67
2823968,61
2824596,54
2825228,40
2825848,32
2826476,18
2827100,11
2827728,12
2828360,18
2828976,24
2829604,36
2830228,43
2830852,49
2831484,52
2832104,49
2832732,43
2833356,34
2833980,27
2834608,18
2835228,14
2835856,12
2836484,11
2837104,27
2837732,46
2838356,59
2838988,64
2839616,66
2840240,69
2840868,66
2841492,56
2842120,37
2842748,22
2843368,11
2843996,13
2844620,17
2845244,19
2845876,26
2846496,36
2847124,45
2847756,46
2848376,48
2849004,51
2849628,44
2850256,39
2850884,35
2851504,33
2852132,22
2852756,13
2853384,17
2854012,36
2854632,53
2855260,62
2855884,65
2856508,64
2857140,62
2857760,60
2858388,47
2859020,32
2859640,19
2860268,11
2860892,16
2861524,21
2862156,24
2862776,32
2863408,33
2864032,37
2864656,40
2865284,43
2865904,37
2866536,35
2867160,33
2867784,31
2868416,32
2869032,27
2869660,13
2870288,21
2870912,46
2871540,60
2872164,62
2872796,66
2873424,73
2874044,70
2874672,62
2875296,46
2875920,25
2876548,11
2877168,12
2877796,21
2878420,25
2879044,27
2879676,34
2880296,41
2880924,46
2881552,46
2882168,45
2882800,39
2883420,37
2884052,38
2884680,34
2885296,31
2885924,23
2886548,11
2887172,29
2887804,50
2888424,61
2889052,67
2889672,71
2890296,73
2890924,65
2891544,53
2892172,37
2892796,21
2893424,13
2894052,13
2894676,20
2895308,25
2895936,31
2896556,35
2897184,40
2897808,43
2898436,46
2899064,46
2899688,43
2900316,41
2900940,34
2901564,29
2902196,22
2902816,15
2903444,20
2904076,36
2904696,57
2905324,66
2905948,72
2906580,71
2907208,63
2907832,59
2908464,47
2909084,27
2909708,16
2910340,11
2910960,11
2911588,21
2912216,25
2912836,34
2913468,40
2914088,49
2914716,49
2915348,48
2915968,45
2916596,40
2917224,35
2917852,32
2918484,26
2919104,23
2919732,11
2920356,23
2920980,41
2921608,54
2922224,64
2922856,70
2923480,69
2924104,67
2924732,54
2925352,38
2925980,20
2926612,10
2927232,15
2927864,17
2928488,15
2929116,19
2929748,28
2930368,37
2931000,41
2931624,41
2932248,44
2932876,42
2933496,39
2934128,32
2934752,28
2935376,23
2936004,16
2936624,13
2937252,29
2937884,48
2938504,59
2939136,64
2939760,65
2940388,65
2941020,60
2941640,52
2942268,36
2942896,19
2943520,11
2944152,13
2944768,20
2945396,24
2946020,37
2946644,47
2947276,46
2947896,44
2948524,39
2949156,34
2949776,32
2950404,29
2951024,27
2951656,27
2952284,22
2952904,13
2953532,20
2954156,41
2954780,57
2955412,62
2956032,65
2956660,63
2957288,63
2957908,55
2958540,42
2959160,29
2959792,16
2960420,10
2961040,15
2961668,24
2962292,29
2962920,39
2963548,42
2964168,41
2964796,44
2965420,49
2966044,48
2966676,39
2967296,32
2967924,28
2968552,22
2969176,16
2969804,12
2970424,28
2971052,47
2971680,60
2972296,64
2972928,67
2973552,66
2974180,62
2974812,52
2975432,40
2976060,23
2976684,10
2977308,14
2977936,18
2978552,17
2979184,27
2979808,37
2980432,46
2981060,51
2981680,52
2982308,46
2982940,38
2983560,33
2984188,30
2984812,31
2985444,29
2986072,17
2986696,17
2987324,40
2987952,54
2988576,61
2989204,70
2989824,74
2990456,75
2991076,65
2991704,51
2992332,34
2992952,21
2993580,12
2994212,14
2994832,25
2995464,30
2996088,37
2996716,40
2997344,42
2997968,42
2998596,43
2999220,41
2999848,36
3000476,34
3001096,33
3001724,28
3002348,23
3002972,13
3003604,21
3004228,45
3004860,59
3005488,64
3006112,67
3006744,69
3007368,67
3007996,55
3008628,38
3009248,22
3009876,12
3010504,12
3011128,21
3011756,23
3012376,27
3013008,37
3013636,46
3014256,46
3014888,42
3015512,35
3016144,32
3016772,32
3017392,32
3018024,31
3018648,24
3019272,17
3019904,13
3020520,29
3021152,49
3021776,60
3022400,63
3023028,65
3023648,63
3024280,60
3024908,54
3025528,41
3026160,22
3026784,12
3027412,16
3028044,22
3028664,25
3029292,35
3029920,47
3030544,54
3031176,49
3031792,39
3032424,29
3033048,24
3033672,25
3034300,24
3034920,27
3035548,24
3036180,13
3036800,17
3037428,34
3038056,54
3038688,65
3039316,66
3039936,67
3040568,64
3041192,59
3041816,45
3042448,28
3043064,16
3043696,11
3044320,14
3044944,19
3045572,26
3046192,39
3046824,47
3047452,48
3048072,49
3048700,45
3049324,38
3049956,33
3050588,28
3051208,30
3051840,27
3052460,19
3053088,12
3053716,21
3054336,45
3054968,60
3055592,66
3056216,69
3056848,66
3057464,62
3058096,59
3058724,46
3059344,30
3059976,15
3060600,11
3061228,21
3061860,28
3062480,33
3063108,35
3063736,43
3064360,46
3064992,41
3065608,43
3066236,40
3066864,37
3067488,32
3068120,35
3068744,32
3069376,18
3070008,17
3070628,40
3071260,61
3071884,69
3072516,69
3073148,69
3073768,64
3074396,56
3075020,47
3075644,33
3076272,18
3076896,11
3077524,15
3078156,25
3078776,29
3079404,37
3080028,39
3080660,40
3081288,41
3081904,46
3082532,46
3083156,42
3083784,36
3084412,32
3085032,29
3085660,25
3086284,11
3086908,23
3087540,45
3088160,60
3088788,65
3089420,67
3090040,65
3090668,67
3091292,58
3091924,42
3092552,25
3093176,14
3093804,11
3094428,15
3095052,21
3095684,32
3096304,39
3096936,42
3097560,47
3098184,49
3098812,46
3099432,41
3100064,37
3100692,28
3101312,25
3101944,22
3102568,16
3103200,15
3103828,34
3104448,51
3105076,53
3105700,56
3106324,61
3106956,66
3107576,64
3108208,54
3108832,39
3109456,21
3110084,11
3110704,11
3111336,16
3111964,18
3112584,31
3113216,37
3113840,46
3114468,49
3115100,48
3115720,43
3116348,35
3116976,34
3117600,33
3118228,30
3118848,25
3119476,13
3120104,20
3120728,40
3121356,56
3121976,62
3122608,65
3123236,66
3123856,68
3124484,61
3125108,46
3125736,25
3126368,12
3126988,10
3127616,15
3128240,26
3128864,33
3129492,45
3130112,57
3130744,53
3131368,45
3131992,38
3132624,31
3133240,34
3133872,32
3134504,24
3135120,25
3135752,21
3136376,13
3137004,32
3137636,54
3138256,68
3138884,70
3139508,73
3140136,71
3140764,62
3141384,51
3142016,34
3142640,20
3143264,12
3143892,11
3144520,17
3145148,23
3145780,31
3146400,39
3147028,44
3147656,47
3148284,48
3148916,42
3149536,40
3150164,35
3150792,34
3151416,32
3152048,27
3152664,17
3153292,15
3153920,34
3154544,53
3155176,63
3155800,65
3156432,68
3157060,67
3157680,60
3158312,47
3158936,34
3159560,20
3160192,10
3160808,14
3161436,21
3162064,26
3162688,37
3163320,43
3163936,45
3164568,42
3165200,44
3165816,43
3166448,38
3167072,35
3167704,34
3168332,29
3168952,21
3169584,11
3170208,26
3170832,44
3171464,61
3172084,71
3172712,71
3173340,67
3173964,61
3174596,52
3175216,37
3175844,20
3176476,11
3177096,12
3177728,17
3178352,20
3178980,28
3179612,32
3180232,41
3180864,45
3181488,48
3182112,45
3182744,39
3183360,33
3183992,34
3184616,31
3185244,27
3185876,17
3186500,13
3187132,30
3187764,51
3188384,63
3189016,71
3189640,70
3190272,63
3190904,58
3191520,47
3192152,33
3192780,19
3193404,11
3194036,16
3194656,25
3195288,25
3195916,30
3196536,36
3197168,40
3197792,42
3198424,43
3199056,36
3199672,34
3200308,35
3200928,37
3201548,33
3202180,24
3202800,15
3203428,21
3204052,45
3204672,63
3205304,66
3205920,69
3206548,66
3207176,63
3207800,56
3208428,43
3209052,27
3209680,14
3210308,11
3210928,17
3211556,19
3212180,22
3212804,33
3213436,40
3214056,45
3214684,41
3215308,43
3215932,40
3216564,37
3217184,34
3217812,32
3218444,26
3219064,19
3219692,11
3220316,28
3220948,52
3221576,65
3222200,71
3222832,73
3223456,68
3224080,64
3224708,54
3225328,40
3225956,21
3226580,11
3227204,15
3227832,22
3228456,24
3229084,31
3229716,36
3230336,42
3230968,45
3231588,47
3232220,43
3232848,39
3233472,40
3234100,39
3234724,32
3235348,17
3235980,10
3236600,21
3237228,41
3237852,56
3238476,61
3239104,64
3239728,66
3240356,63
3240988,55
3241608,47
3242236,27
3242860,16
3243492,11
3244120,12
3244744,21
3245376,27
3246000,39
3246624,41
3247252,44
3247872,45
3248504,44
3249124,41
3249748,36
3250380,33
3251000,33
3251632,26
3252260,19
3252880,11
3253508,23
3254132,40
3254764,54
3255396,62
3256016,66
3256644,69
3257268,65
3257896,57
3258524,42
3259144,26
3259776,16
3260400,11
3261024,14
3261656,17
3262280,27
3262908,35
3263540,50
3264160,54
3264788,51
3265412,47
3266044,43
3266672,39
3267296,32
3267924,25
3268548,18
3269172,11
3269804,22
3270424,36
3271052,51
3271680,56
3272304,60
3272936,59
3273560,61
3274192,57
3274824,46
3275440,30
3276072,16
3276696,11
3277320,13
3277948,16
3278564,18
3279192,28
3279816,39
3280440,35
3281068,34
3281684,42
3282312,43
3282936,36
3283560,34
3284188,34
3284808,40
3285436,38
3286064,29
3286680,20
3287308,12
3287932,26
3288560,52
3289188,75
3289808,95
3290436,95
3291056,85
3291680,76
3292308,36
3292928,15
3293556,10
3294176,12
3294800,14
3295428,24
3296048,34
3296676,40
3297304,53
3297920,56
3298548,46
3299172,31
3299800,17
3300428,16
3301048,31
3301676,25
3302300,12
3302924,12
3303552,19
3304168,39
3304796,48
3305420,47
3306044,34
3306672,29
3307296,31
3307924,31
3308552,26
3309176,17
3309804,15
3310428,30
3311056,43
3311688,42
3312304,41
3312932,34
3313556,25
3314184,21
3314812,18
3315432,17
3316060,15
3316684,11
3317308,10
3317936,12
3318560,14
3319188,11
3319816,14
3320440,23
3321068,36
3321692,47
3322320,61
3322948,56
3323568,51
3324196,48
3324820,51
3325444,32
3326076,14
3326696,15
3327324,22
3327952,26
3328576,29
3329204,43
3329820,43
3330452,39
3331080,39
3331696,43
3332324,41
3332948,38
3333576,35
3334204,35
3334824,32
3335452,20
3336076,12
3336704,25
3337332,40
3337952,59
3338580,63
3339204,62
3339828,62
3340456,64
3341072,59
3341704,48
3342324,31
3342948,21
3343580,11
3344200,15
3344832,29
3345460,32
3346080,39
3346708,41
3347332,43
3347960,45
3348588,44
3349208,38
3349836,35
3350460,34
3351084,33
3351712,27
3352332,19
3352960,14
3353584,33
3354208,50
3354836,59
3355460,65
3356092,67
3356720,64
3357344,65
3357972,54
3358600,35
3359228,13
3359860,14
3360480,25
3361108,54
3361732,57
3362352,59
3362984,54
3363600,48
3364228,36
3364852,28
3365472,47
3366104,40
3366728,25
3367356,14
3367984,17
3368600,24
3369232,59
3369856,89
3370484,123
3371164,111
3371836,70
3372460,31
3373092,34
3373712,55
3374340,48
3374964,29
3375596,13
3376224,23
3376840,23
3377472,28
3378096,35
3378720,33
3379348,38
3379968,43
3380596,48
3381216,48
3381840,46
3382468,40
3383088,37
3383716,35
3384344,33
3384960,28
3385588,21
3386216,11
3386844,25
3387472,44
3388096,56
3388724,57
3389348,55
3389972,58
3390604,54
3391224,48
3391852,38
3392480,23
3393100,12
3393732,10
3394352,13
3394980,15
3395612,30
3396232,47
3396860,51
3397484,44
3398112,42
3398744,36
3399360,28
3399992,30
3400616,31
3401240,32
3401868,26
3402488,21
3403116,17
3403740,44
3404364,70
3404992,78
3405616,75
3406244,67
3406872,61
3407488,53
3408120,43
3408740,26
3409372,12
3410000,11
3410616,16
3411248,22
3411868,26
3412492,36
3413120,41
3413744,47
3414372,48
3415000,48
3415624,47
3416252,43
3416872,37
3417500,32
3418132,30
3418752,26
3419380,13
3420008,17
3420636,33
3421268,44
3421888,67
3422516,80
3423140,85
3423768,73
3424396,50
3425016,32
3425644,14
3426268,10
3426892,14
3427524,18
3428144,11
3428772,26
3429404,26
3430024,25
3430656,32
3431280,41
3431908,61
3432536,61
3433160,47
3433788,30
3434412,26
3435036,11
3435668,12
3436288,23
3436916,29
3437540,38
3438164,51
3438796,48
3439416,42
3440048,27
3440676,24
3441296,19
3441924,19
3442544,23
3443176,15
3443808,11
3444424,18
3445052,24
3445676,18
3446300,19
3446932,18
3447552,17
3448180,29
3448804,18
3449428,12
3450060,23
3450680,32
3451308,50
3451940,76
3452560,78
3453188,45
3453812,14
3454444,61
3455076,108
3455748,98
3456376,81
3456996,71
3457620,77
3458252,81
3458872,58
3459500,20
3460132,14
3460752,31
3461380,21
3462004,21
3462636,26
3463264,39
3463880,36
3464512,31
3465136,37
3465760,68
3466388,78
3467008,60
3467636,47
3468260,44
3468884,45
3469512,42
3470136,32
3470764,25
3471396,48
3472016,80
3472644,95
3473268,102
3473952,112
3474624,54
3475248,19
3475876,11
3476508,12
3477128,33
3477756,53
3478384,49
3479012,54
3479644,45
3480264,20
3480896,15
3481520,15
3482144,14
3482772,11
3483392,29
3484020,56
3484644,39
3485268,10
3485896,11
3486516,14
3487144,14
3487772,50
3488392,101
3489072,108
3489740,109
3490412,107
3491088,76
3491712,36
3492340,13
3492972,28
3493592,31
3494220,20
3494848,19
3495468,26
3496100,40
3496720,61
3497348,74
3497972,80
3498596,74
3499228,63
3499852,47
3500480,28
3501112,12
3501732,17
3502360,27
3502984,45
3503616,68
3504248,107
3504916,106
3505592,62
3506224,27
3506840,19
3507472,25
3508096,9
3508672,19
3509308,50
3509928,47
3510556,33
3511184,47
3511812,76
3512444,54
3513064,51
3513696,65
3514316,44
3514944,41
3515572,46
3516192,56
3516824,51
3517452,32
3518072,23
3518704,15
3519328,23
3519960,56
3520592,51
3521208,34
3521840,66
3522464,41
3523088,16
3523716,17
3524336,31
3524964,50
3525588,47
3526212,27
3526844,24
3527464,18
3528092,18
3528724,30
3529344,67
3529972,82
3530596,95
3531228,103
3531908,77
3532528,37
3533160,13
3533780,29
3534404,58
3535032,23
3535656,24
3536284,22
3536916,31
3537536,40
3538164,13
3538788,14
3539420,37
3540048,25
3540672,58
3541300,103
3541976,77
3542600,59
3543228,43
3543848,27
3544476,77
3545108,78
3545728,75
3546356,66
3546980,30
3547612,30
3548240,79
3548864,128
3549544,111
3550220,36
3550840,105
3551520,126
3552196,92
3552816,69
3553444,58
3554064,55
3554692,21
3555316,48
3555940,93
3556572,125
3557248,108
3557924,99
3558552,98
3559168,117
3559852,180
3560532,179
3561204,34
3561828,79
3562456,115
3563132,98
3563760,107
3564436,80
3565060,73
3565688,67
3566308,129
3566988,198
3567668,188
3568340,60
3568964,49
3569588,39
3570216,77
3570844,75
3571464,124
3572144,164
3572828,191
3573500,130
3574180,54
3574808,59
3575424,71
3576056,77
3576680,69
3577308,40
3577940,13
3578560,53
3579192,65
3579816,56
3580440,61
3581072,67
3581692,60
3582324,53
3582948,50
3583572,51
3584208,73
3584824,92
3585452,73
3586080,40
3586696,17
3587324,28
3587948,66
3588580,60
3589208,63
3589824,129
3590508,135
3591184,75
3591808,87
3592436,96
3593060,55
3593692,15
3594320,32
3594944,33
3595572,47
3596196,57
3596824,69
3597452,86
3598072,100
3598756,100
3599436,67
3600056,51
3600684,45
3601308,13
3601932,48
3602560,69
3603180,92
3603812,93
3604436,86
3605060,53
3605688,25
3606304,18
3606932,16
3607564,18
3608184,18
3608812,13
3609436,11
3610064,13
3610696,11
3611312,21
3611940,32
3612564,34
3613188,55
3613820,81
3614440,75
3615068,54
3615692,44
3616316,30
3616948,48
3617568,64
3618196,32
3618828,54
3619448,126
3620128,69
3620744,51
3621376,36
3622004,27
3622624,67
3623252,102
3623928,89
3624544,44
3625176,13
3625800,32
3626428,70
3627060,96
3627680,93
3628308,62
3628932,25
3629560,16
3630192,15
3630812,33
3631440,57
3632064,107
3632740,82
3633364,33
3633988,53
3634620,43
3635252,36
3635872,21
3636500,12
3637124,30
3637752,48
3638384,51
3639000,56
3639632,59
3640256,58
3640880,50
3641508,38
3642128,25
3642756,11
3643384,13
3644004,22
3644636,36
3645260,46
3645892,70
3646520,88
3647144,84
3647776,74
3648400,67
3649028,34
3649656,11
3650280,13
3650908,55
3651532,128
3652208,62
3652832,12
3653452,23
3654084,17
3654712,20
3655336,17
3655968,35
3656592,42
3657220,47
3657852,46
3658472,53
3659100,44
3659728,16
3660352,58
3660980,77
3661600,59
3662228,49
3662860,50
3663480,22
3664108,21
3664732,43
3665364,56
3665996,22
3666616,24
3667244,14
3667868,14
3668492,41
3669124,16
3669744,41
3670376,57
3671000,125
3671676,192
3672356,148
3673028,72
3673648,42
3674276,20
3674896,32
3675524,49
3676152,13
3676776,35
3677408,29
3678032,26
3678664,40
3679292,63
3679912,76
3680548,74
3681172,64
3681800,54
3682428,50
3683048,63
3683680,61
3684304,26
3684928,56
3685560,41
3686176,14
3686808,11
3687436,18
3688056,36
3688684,50
3689304,60
3689936,56
3690564,58
3691184,91
3691812,73
3692436,39
3693064,13
3693692,24
3694312,35
3694940,34
3695564,37
3696188,41
3696820,38
3697440,33
3698068,37
3698696,44
3699320,57
3699948,54
3700572,47
3701204,41
3701832,35
3702452,25
3703080,15
3703704,73
3704328,96
3704956,72
3705576,55
3706208,50
3706832,39
3707456,31
3708084,42
3708704,47
3709336,11
3709964,13
3710584,33
3711216,56
3711840,82
3712472,105
3713152,113
3713820,102
3714496,24
3715124,58
3715744,45
3716372,11
3716996,29
3717628,31
3718260,21
3718880,25
3719508,53
3720132,55
3720756,63
3721388,74
3722008,89
3722636,86
3723260,38
3723888,35
3724520,26
3725144,17
3725772,13
3726404,34
3727024,62
3727656,28
3728280,25
3728900,31
3729532,72
3730152,89
3730780,105
3731464,104
3732132,72
3732760,13
3733384,43
3734012,31
3734644,28
3735264,37
3735896,86
3736520,43
3737144,45
3737776,66
3738392,67
3739024,51
3739648,42
3740272,46
3740900,39
3741524,26
3742156,12
3742788,10
3743408,29
3744036,48
3744660,55
3745284,57
3745916,48
3746536,53
3747168,56
3747792,34
3748416,29
3749044,31
3749664,27
3750292,39
3750924,31
3751544,22
3752176,18
3752800,28
3753428,29
3754060,18
3754680,15
3755312,19
3755936,59
3756560,90
3757192,215
3757864,172
3758540,58
3759168,55
3759788,11
3760416,44
3761044,53
3761672,47
3762300,55
3762920,76
3763552,93
3764176,89
3764800,97
3765428,99
3766048,111
3766732,92
3767360,38
3767976,18
3768608,36
3769232,50
3769864,136
3770544,200
3771212,214
3771888,142
3772572,33
3773192,14
3773824,13
3774448,33
3775072,35
3775704,15
3776328,11
3776956,10
3777588,13
3778208,19
3778840,30
3779464,28
3780092,21
3780720,43
3781344,56
3781976,52
3782600,45
3783224,39
3783856,38
3784472,35
3785104,13
3785732,12
3786352,12
3786984,19
3787608,33
3788240,40
3788868,46
3789488,54
3790116,69
3790740,104
3791420,83
3792044,30
3792664,18
3793292,44
3793916,63
3794544,100
3795228,144
3795900,140
3796572,134
3797252,50
3797872,63
3798504,15
3799132,46
3799752,133
3800436,101
3801112,30
3801736,27
3802364,23
3802992,42
3803620,19
3804252,27
3804872,20
3805500,13
3806128,34
3806752,103
3807436,150
3808108,140
3808784,75
3809416,11
3810032,35
3810660,43
3811284,40
3811908,43
3812540,46
3813160,50
3813792,50
3814420,50
3815040,47
3815668,42
3816296,41
3816924,37
3817556,34
3818176,29
3818808,22
3819432,11
3820056,30
3820688,47
3821308,56
3821936,61
3822564,51
3823188,40
3823820,29
3824440,18
3825072,14
3825704,35
3826320,21
3826952,20
3827576,51
3828208,51
3828840,56
3829456,13
3830088,15
3830712,16
3831336,71
3831968,86
3832592,17
3833224,43
3833852,60
3834480,40
3835112,12
3835736,10
3836368,15
3837000,38
3837624,55
3838256,60
3838884,64
3839508,62
3840140,54
3840760,48
3841388,37
3842012,24
3842632,12
3843264,15
3843880,21
3844508,25
3845140,24
3845760,36
3846388,44
3847012,45
3847644,41
3848276,39
3848896,44
3849524,43
3850148,39
3850776,39
3851404,34
3852024,27
3852652,15
3853276,34
3853900,77
3854532,88
3855152,65
3855784,97
3856412,64
3857032,13
3857660,33
3858284,31
3858916,25
3859544,30
3860168,58
3860796,40
3861420,33
3862048,58
3862676,26
3863296,29
3863924,15
3864552,18
3865176,12
3865808,40
3866424,78
3867052,90
3867684,83
3868304,40
3868932,13
3869556,73
3870188,119
3870872,146
3871540,90
3872168,63
3872796,50
3873416,46
3874044,37
3874668,29
3875300,16
3875932,11
3876552,15
3877180,20
3877808,29
3878432,32
3879060,39
3879680,52
3880308,72
3880936,90
3881560,105
3882244,115
3882916,102
3883588,82
3884216,27
3884832,23
3885460,74
3886092,156
3886764,173
3887444,112
3888116,52
3888736,43
3889368,41
3889992,44
3890620,37
3891252,21
3891872,9
3892448,15
3893072,26
3893700,45
3894332,66
3894952,55
3895584,18
3896208,19
3896836,55
3897468,24
3898088,40
3898716,41
3899340,12
3899968,26
3900596,39
3901216,42
3901848,41
3902476,26
3903096,13
3903728,29
3904352,57
3904980,73
3905612,67
3906232,56
3906864,54
3907488,54
3908112,39
3908744,31
3909360,32
3909992,16
3910616,24
3911240,37
3911872,41
3912488,47
3913116,57
3913748,64
3914368,83
3915000,74
3915624,48
3916252,38
3916884,12
3917504,15
3918136,14
3918760,32
3919384,17
3920012,25
3920632,69
3921264,131
3921944,137
3922620,100
3923296,46
3923920,26
3924544,17
3925172,10
3925792,14
3926424,16
3927052,12
3927672,16
3928304,17
3928928,15
3929560,38
3930192,44
3930808,55
3931440,57
3932068,49
3932692,35
3933324,32
3933944,32
3934572,30
3935196,13
3935824,29
3936452,34
3937072,37
3937700,43
3938332,48
3938952,65
3939580,49
3940208,24
3940836,14
3941468,15
3942088,16
3942716,24
3943340,13
3943964,56
3944596,18
3945216,17
3945844,15
3946468,45
3947092,27
3947724,30
3948344,17
3948972,26
3949604,35
3950224,40
3950856,41
3951480,57
3952108,99
3952740,89
3953360,30
3953988,13
3954612,35
3955240,27
3955868,54
3956488,158
3957168,153
3957852,82
3958472,53
3959100,52
3959728,49
3960352,14
3960980,11
3961600,28
3962228,19
3962856,69
3963480,29
3964108,72
3964728,84
3965360,76
3965988,34
3966608,71
3967240,40
3967864,32
3968496,45
3969124,41
3969744,29
3970372,12
3970996,27
3971624,73
3972252,95
3972872,68
3973504,50
3974128,37
3974752,28
3975380,15
3976004,11
3976636,11
3977264,14
3977888,20
3978516,27
3979140,35
3979772,38
3980404,40
3981024,39
3981652,39
3982280,37
3982904,33
3983532,29
3984152,27
3984780,21
3985404,16
3986032,11
3986660,21
3987288,35
3987916,32
3988548,31
3989168,34
3989800,42
3990424,45
3991048,25
3991676,54
3992296,52
3992928,29
3993556,16
3994180,14
3994812,26
3995432,49
3996064,61
3996692,52
3997312,45
3997944,37
3998568,44
3999200,41
3999828,22
4000448,16
4001076,37
4001700,23
4002324,21
4002956,93
4003576,105
4004256,63
4004884,42
4005504,38
4006132,41
4006756,49
4007388,48
4008016,34
4008632,12
4009260,19
4009884,27
4010508,57
4011140,87
4011760,93
4012388,89
4013016,37
4013640,40
4014268,33
4014888,18
4015516,58
4016148,43
4016768,50
4017396,35
4018020,38
4018652,59
4019280,57
4019896,23
4020524,89
4021148,110
4021824,89
4022444,103
4023116,103
4023792,50
4024424,43
4025040,35
4025668,11
4026292,17
4026916,24
4027548,24
4028168,33
4028796,45
4029424,47
4030048,44
4030676,38
4031304,37
4031936,38
4032564,37
4033184,38
4033812,35
4034436,31
4035068,25
4035700,13
4036320,16
4036948,31
4037572,48
4038196,55
4038828,62
4039448,64
4040076,63
4040700,55
4041328,43
4041956,26
4042580,14
4043212,12
4043844,12
4044464,24
4045096,27
4045716,40
4046344,70
4046972,41
4047592,45
4048224,41
4048844,25
4049468,39
4050100,48
4050720,45
4051348,25
4051980,35
4052600,60
4053228,65
4053856,27
4054484,13
4055116,28
4055736,72
4056368,156
4057044,218
4057716,152
4058392,40
4059016,11
4059644,20
4060276,18
4060896,11
4061524,13
4062148,21
4062776,23
4063404,14
4064024,34
4064652,49
4065276,48
4065904,50
4066536,54
4067160,53
4067792,43
4068420,36
4069040,24
4069672,12
4070296,33
4070920,44
4071552,43
4072172,44
4072800,35
4073424,17
4074048,25
4074680,31
4075296,13
4075928,14
4076560,15
4077176,21
4077808,41
4078432,90
4079064,53
4079692,33
4080312,53
4080944,51
4081568,19
4082192,35
4082824,72
4083440,95
4084072,56
4084696,12
4085320,13
4085952,32
4086568,43
4087200,139
4087880,136
4088556,98
4089184,120
4089868,67
4090488,28
4091120,18
4091744,10
4092376,14
4093008,17
4093624,23
4094256,30
4094880,29
4095508,34
4096140,48
4096756,56
4097384,56
4098004,64
4098628,67
4099256,61
4099872,43
4100496,15
4101124,18
4101740,16
4102372,12
4102992,15
4103624,37
4104252,58
4104872,71
4105500,65
4106124,77
4106752,92
4107380,38
4108000,22
4108628,12
4109252,10
4109872,17
4110500,27
4111120,28
4111748,11
4112372,15
4112996,31
4113624,41
4114244,41
4114876,42
4115504,43
4116120,64
4116752,73
4117376,77
4118004,71
4118632,62
4119248,31
4119880,40
4120504,99
4121124,145
4121808,150
4122476,116
4123152,76
4123776,52
4124392,11
4125020,15
4125644,13
4126268,18
4126896,29
4127512,30
4128144,32
4128764,16
4129392,14
4130020,30
4130644,36
4131272,47
4131900,45
4132520,65
4133148,50
4133772,21
4134400,44
4135032,49
4135648,60
4136276,84
4136900,32
4137524,32
4138156,18
4138776,26
4139404,16
4140028,106
4140708,254
4141388,252
4142060,144
4142732,15
4143356,72
4143984,117
4144664,79
4145288,68
4145904,22
4146532,88
4147160,77
4147784,20
4148412,20
4149032,32
4149660,43
4150292,42
4150912,37
4151540,28
4152164,25
4152796,21
4153424,11
4154048,23
4154676,33
4155300,40
4155924,37
4156556,74
4157176,76
4157808,13
4158428,45
4159052,58
4159684,48
4160304,39
4160932,46
4161560,60
4162176,21
4162808,111
4163480,54
4164104,15
4164732,16
4165352,15
4165980,19
4166604,16
4167228,28
4167856,41
4168472,30
4169104,19
4169724,22
4170352,17
4170980,20
4171604,28
4172232,37
4172864,49
4173480,59
4174108,70
4174732,51
4175360,17
4175992,11
4176608,22
4177240,15
4177864,11
4178488,21
4179116,31
4179736,38
4180364,39
4180988,31
4181616,26
4182244,21
4182868,19
4183496,23
4184124,24
4184744,24
4185372,20
4185996,12
4186624,12
4187256,16
4187872,18
4188500,20
4189124,23
4189748,19
4190380,18
4191000,32
4191628,56
4192256,30
4192880,11
4193508,11
4194132,26
4194760,17
4195392,44
4196008,36
4196636,52
4197260,130
4197944,181
4198620,62
4199240,12
4199868,37
4200496,23
4201112,196
4201792,128
4202468,130
4203140,180
4203816,87
4204440,43
4205064,18
4205692,22
4206312,21
4206940,17
4207564,16
4208188,31
4208820,12
4209440,15
4210068,25
4210696,27
4211320,25
4211948,24
4212572,24
4213204,23
4213832,23
4214448,23
4215080,24
4215704,24
4216328,26
4216956,25
4217576,26
4218208,23
4218832,15
4219456,12
4220084,16
4220704,23
4221332,25
4221964,18
4222584,16
4223212,17
4223840,17
4224468,17
4225096,16
4225720,53
4226348,40
4226972,13
4227596,15
4228224,28
4228840,42
4229472,45
4230096,52
4230716,90
4231348,166
4232020,180
4232696,112
4233372,93
4233992,77
4234624,25
4235244,233
4235920,336
4236600,202
4237276,150
4237948,68
4238576,44
4239196,58
4239828,59
4240460,18
4241080,24
4241708,29
4242332,33
4242956,30
4243584,27
4244208,29
4244836,24
4245460,26
4246084,27
4246712,29
4247336,29
4247964,31
4248596,29
4249216,29
4249848,29
4250468,37
4251100,41
4251728,38
4252348,33
4252976,31
4253600,17
4254224,23
4254852,17
4255472,49
4256100,101
4256784,108
4257452,96
4258076,47
4258700,15
4259332,10
4259964,12
4260584,16
4261212,16
4261836,18
4262460,23
4263088,22
4263704,23
4264332,26
4264956,20
4265584,18
4266212,17
4266836,17
4267468,17
4268096,15
4268720,18
4269348,35
4269972,58
4270600,61
4271228,52
4271848,44
4272476,17
4273100,60
4273724,127
4274408,140
4275076,96
4275704,61
4276332,16
4276952,12
4277580,32
4278208,13
4278828,74
4279460,82
4280080,92
4280708,71
4281332,41
4281956,42
4282584,23
4283208,36
4283840,65
4284468,49
4285088,15
4285716,25
4286340,59
4286972,74
4287604,40
4288224,23
4288852,19
4289476,18
4290100,19
4290728,14
4291352,12
4291980,23
4292604,30
4293232,29
4293860,19
4294484,11
4295116,11
4295744,12
4296368,15
4296996,14
4297620,26
4298244,37
4298876,34
4299496,31
4300128,17
4300752,15
4301376,11
4302008,36
4302624,15
4303252,18
4303884,20
4304504,30
4305132,32
4305756,17
4306388,11
4307016,10
4307640,31
4308268,53
4308892,38
4309516,24
4310148,42
4310768,32
4311396,13
4312020,52
4312644,91
4313276,36
4313896,13
4314524,13
4315156,14
4315776,43
4316408,55
4317032,73
4317660,79
4318292,80
4318912,14
4319544,20
4320168,13
4320792,48
4321420,107
4322092,106
4322768,89
4323392,46
4324008,24
4324636,17
4325260,17
4325892,28
4326520,19
4327136,57
4327768,77
4328392,76
4329016,80
4329644,54
4330264,24
4330892,51
4331516,100
4332196,64
4332820,28
4333444,83
4334076,102
4334756,30
4335376,94
4336004,15
4336628,23
4337252,87
4337884,87
4338508,82
4339140,36
4339772,16
4340392,16
4341024,13
4341648,11
4342276,12
4342908,14
4343528,19
4344156,19
4344780,18
4345408,22
4346036,22
4346656,19
4347284,15
4347916,12
4348536,12
4349164,12
4349792,14
4350420,19
4351052,26
4351672,46
4352304,78
4352928,115
4353600,100
4354280,69
4354896,39
4355524,14
4356152,20
4356776,171
4357456,228
4358132,114
4358804,48
4359428,58
4360052,63
4360684,28
4361312,11
4361932,17
4362560,29
4363184,17
4363808,24
4364436,20
4365056,45
4365684,45
4366308,52
4366932,43
4367564,43
4368184,27
4368812,34
4369440,32
4370064,43
4370692,26
4371316,13
4371948,15
4372580,14
4373200,47
4373828,84
4374452,46
4375076,11
4375708,16
4376328,31
4376956,24
4377584,14
4378208,19
4378836,24
4379464,33
4380092,36
4380724,38
4381344,36
4381976,30
4382600,26
4383232,21
4383860,26
4384480,30
4385108,40
4385732,67
4386356,96
4386988,92
4387608,65
4388236,33
4388860,18
4389488,138
4390168,262
4390844,167
4391516,70
4392144,41
4392760,32
4393392,41
4394024,37
4394640,12
4395272,45
4395896,64
4396528,58
4397156,65
4397776,45
4398408,12
4399032,13
4399656,13
4400288,10
4400904,19
4401536,31
4402160,27
4402784,33
4403416,31
4404036,17
4404668,17
4405296,14
4405912,13
4406544,41
4407168,137
4407848,83
4408476,17
4409096,61
4409724,84
4410348,104
4411024,58
4411656,77
4412280,98
4412908,131
4413592,70
4414208,20
4414836,27
4415464,37
4416088,11
4416716,18
4417336,24
4417964,21
4418596,18
4419216,19
4419844,17
4420468,14
4421100,14
4421732,16
4422352,21
4422984,24
4423608,16
4424232,14
4424860,15
4425480,47
4426108,77
4426732,79
4427356,41
4427988,25
4428612,50
4429244,56
4429872,44
4430488,14
4431120,34
4431744,41
4432376,30
4433004,43
4433624,19
4434252,75
4434876,43
4435500,12
4436132,32
4436752,35
4437384,25
4438008,35
4438632,74
4439264,71
4439888,39
4440516,19
4441148,10
4441768,77
4442396,19
4443020,39
4443652,41
4444284,26
4444904,20
4445532,51
4446156,70
4446784,88
4447412,66
4448032,49
4448660,48
4449292,88
4449912,55
4450544,61
4451168,99
4451800,53
4452428,43
4453048,64
4453680,25
4454304,15
4454928,41
4455556,35
4456176,18
4456804,10
4457428,17
4458052,43
4458684,90
4459304,62
4459936,14
4460564,19
4461184,25
4461816,25
4462440,22
4463068,21
4463700,24
4464320,32
4464952,29
4465572,31
4466200,27
4466828,33
4467448,43
4468076,47
4468704,28
4469328,14
4469956,11
4470576,25
4471208,15
4471836,28
4472456,77
4473088,104
4473764,44
4474384,21
4475016,47
4475632,59
4476264,62
4476888,14
4477516,39
4478148,47
4478768,36
4479400,40
4480032,17
4480648,37
4481276,13
4481900,21
4482528,17
4483160,27
4483780,27
4484408,27
4485032,14
4485656,24
4486284,11
4486904,19
4487532,35
4488156,52
4488780,40
4489412,21
4490032,51
4490660,92
4491292,30
4491912,111
4492596,120
4493268,26
4493888,17
4494516,29
4495136,19
4495768,21
4496396,24
4497016,34
4497644,47
4498268,36
4498900,11
4499528,20
4500152,33
4500784,41
4501408,50
4502032,47
4502664,13
4503280,45
4503912,32
4504536,27
4505164,48
4505792,22
4506416,15
4507044,11
4507672,21
4508292,23
4508920,129
4509596,88
4510216,15
4510844,14
4511464,20
4512092,24
4512716,23
4513340,25
4513968,32
4514592,36
4515220,32
4515852,26
4516472,22
4517100,19
4517724,21
4518356,24
4518988,32
4519608,41
4520236,32
4520860,24
4521484,15
4522116,28
4522736,35
4523364,69
4523992,95
4524616,53
4525244,15
4525864,23
4526492,58
4527124,54
4527744,13
4528376,28
4528996,45
4529628,66
4530256,81
4530880,63
4531508,45
4532132,35
4532756,15
4533388,66
4534008,74
4534636,62
4535264,17
4535888,13
4536516,10
4537136,15
4537768,20
4538396,27
4539016,30
4539648,54
4540272,37
4540900,47
4541532,108
4542204,134
4542884,108
4543564,93
4544184,61
4544816,57
4545440,274
4546116,148
4546796,24
4547416,15
4548044,11
4548676,14
4549296,15
4549924,27
4550548,62
4551176,55
4551804,11
4552424,25
4553052,18
4553676,13
4554304,17
4554932,17
4555552,17
4556184,17
4556812,15
4557432,15
4558060,11
4558688,17
4559316,21
4559948,23
4560568,21
4561196,32
4561824,29
4562448,14
4563076,63
4563696,51
4564324,15
4564948,11
4565576,29
4566204,43
4566824,80
4567456,24
4568084,10
4568704,30
4569336,38
4569960,12
4570588,17
4571220,16
4571840,15
4572472,15
4573096,25
4573720,43
4574352,45
4574968,28
4575600,15
4576224,13
4576848,25
4577476,32
4578096,40
4578724,43
4579356,14
4579976,24
4580608,21
4581232,14
4581864,13
4582492,21
4583112,27
4583744,12
4584368,13
4584992,15
4585624,16
4586240,15
4586868,15
4587496,19
4588120,30
4588752,19
4589368,26
4590000,40
4590628,28
4591248,22
4591876,15
4592504,18
4593132,21
4593764,10
4594384,16
4595016,46
4595640,101
4596316,123
4596996,112
4597668,88
4598288,44
4598916,20
4599536,88
4600168,233
4600848,140
4601516,20
4602144,19
4602768,17
4603400,14
4604028,13
4604648,14
4605280,19
4605904,17
4606528,11
4607160,11
4607780,38
4608412,79
4609040,75
4609656,53
4610284,33
4610908,11
4611536,44
4612164,90
4612784,114
4613464,127
4614132,100
4614804,98
4615428,40
4616052,56
4616684,177
4617364,219
4618036,20
4618660,43
4619292,88
4619912,90
4620540,16
4621168,27
4621796,18
4622428,31
4623048,44
4623676,20
4624300,10
4624924,15
4625556,16
4626176,15
4626804,21
4627428,24
4628052,16
4628684,19
4629304,21
4629932,24
4630564,24
4631184,19
4631812,13
4632440,22
4633068,17
4633700,10
4634320,23
4634948,35
4635572,34
4636196,33
4636828,20
4637448,14
4638076,23
4638704,17
4639328,36
4639960,39
4640584,23
4641212,13
4641844,24
4642464,21
4643092,68
4643716,29
4644348,43
4644976,38
4645600,20
4646228,15
4646852,70
4647476,103
4648160,38
4648776,28
4649404,30
4650036,57
4650656,50
4651284,71
4651908,30
4652540,49
4653172,76
4653792,85
4654420,57
4655048,43
4655672,30
4656300,27
4656920,27
4657548,17
4658176,14
4658800,17
4659432,11
4660052,13
4660684,22
4661312,37
4661936,45
4662564,48
4663188,41
4663816,55
4664448,27
4665064,31
4665692,30
4666316,17
4666944,28
4667572,29
4668192,16
4668824,17
4669452,15
4670072,21
4670700,25
4671328,39
4671956,32
4672588,34
4673208,13
4673836,40
4674460,49
4675084,93
4675716,86
4676336,25
4676964,17
4677588,11
4678216,64
4678844,97
4679464,16
4680096,40
4680724,39
4681344,51
4681972,93
4682596,134
4683280,125
4683956,73
4684576,70
4685208,97
4685836,131
4686508,258
4687184,150
4687860,37
4688480,68
4689108,50
4689736,71
4690364,68
4690996,65
4691616,71
4692244,72
4692868,34
4693500,15
4694132,162
4694804,180
4695484,33
4696112,20
4696728,14
4697360,14
4697984,20
4698612,13
4699244,25
4699864,32
4700496,29
4701120,27
4701744,27
4702376,19
4702996,12
4703628,21
4704252,20
4704880,24
4705508,27
4706136,29
4706768,36
4707396,41
4708016,38
4708648,19
4709272,12
4709896,13
4710528,12
4711144,28
4711772,43
4712396,54
4713024,49
4713652,46
4714272,40
4714900,28
4715532,23
4716152,20
4716784,43
4717408,29
4718040,19
4718668,27
4719288,20
4719920,20
4720544,41
4721168,34
4721796,32
4722416,14
4723044,11
4723672,10
4724296,11
4724924,31
4725544,57
4726176,39
4726804,23
4727424,18
4728056,44
4728680,36
4729308,52
4729940,126
4730612,40
4731240,57
4731864,80
4732488,22
4733116,26
4733736,12
4734368,17
4735000,12
4735620,12
4736252,17
4736876,25
4737504,33
4738136,19
4738752,16
4739380,19
4740008,25
4740628,25
4741260,18
4741880,11
4742512,12
4743136,11
4743760,16
4744388,21
4745008,35
4745640,54
4746268,91
4746888,111
4747568,94
4748192,83
4748816,21
4749444,75
4750064,143
4750748,120
4751428,77
4752048,38
4752676,11
4753300,12
4753928,18
4754556,20
4755176,22
4755808,26
4756432,21
4757056,17
4757688,10
4758304,11
4758936,13
4759568,13
4760184,13
4760816,12
4761440,12
4762072,18
4762700,23
4763320,27
4763948,27
4764576,20
4765200,17
4765828,16
4766448,10
4767076,11
4767704,12
4768328,12
4768956,15
4769576,19
4770208,21
4770836,20
4771456,19
4772088,17
4772712,18
4773340,23
4773972,18
4774592,20
4775220,20
4775848,11
4776472,41
4777104,62
4777720,50
4778352,35
4778976,36
4779600,20
4780232,56
4780848,73
4781480,22
4782112,15
4782728,44
4783360,35
4783984,15
4784616,27
4785248,36
4785868,15
4786500,26
4787124,13
4787752,27
4788380,42
4789000,28
4789632,17
4790256,13
4790880,17
4791512,22
4792136,19
4792768,46
4793400,54
4794020,17
4794652,29
4795276,37
4795908,28
4796540,16
4797160,29
4797792,75
4798416,42
4799040,23
4799672,16
4800300,25
4800928,63
4801556,46
4802176,15
4802804,13
4803428,33
4804060,25
4804688,14
4805308,17
4805936,25
4806560,14
4807184,32
4807812,94
4808432,54
4809060,18
4809684,57
4810308,79
4810940,48
4811560,13
4812192,39
4812820,73
4813440,79
4814068,41
4814692,38
4815320,39
4815952,68
4816572,85
4817200,61
4817824,38
4818448,45
4819076,44
4819696,23
4820324,95
4820948,107
4821624,142
4822308,72
4822928,36
4823560,73
4824188,91
4824808,59
4825436,17
4826064,25
4826688,32
4827316,37
4827936,32
4828568,28
4829196,27
4829816,27
4830448,27
4831072,27
4831704,23
4832332,18
4832952,14
4833584,17
4834208,22
4834832,19
4835460,11
4836080,11
4836708,13
4837332,14
4837960,13
4838588,19
4839208,14
4839836,15
4840468,14
4841088,34
4841716,67
4842340,70
4842972,31
4843604,40
4844224,122
4844904,148
4845584,119
4846260,54
4846888,25
4847512,46
4848136,76
4848768,97
4849384,117
4850068,117
4850748,111
4851420,138
4852100,26
4852720,101
4853396,121
4854076,171
4854748,76
4855368,155
4856052,212
4856724,101
4857400,13
4858024,48
4858644,77
4859276,51
4859900,18
4860528,34
4861160,13
4861784,24
4862416,19
4863044,13
4863664,13
4864296,31
4864920,48
4865544,53
4866172,48
4866792,26
4867420,28
4868044,45
4868668,18
4869300,14
4869920,15
4870548,20
4871180,32
4871800,40
4872432,30
4873056,24
4873684,20
4874316,15
4874936,13
4875564,11
4876192,11
4876816,12
4877444,10
4878064,18
4878696,34
4879320,45
4879944,41
4880576,33
4881192,25
4881824,31
4882452,18
4883072,21
4883704,13
4884328,13
4884956,18
4885588,32
4886208,24
4886840,19
4887464,15
4888088,16
4888716,28
4889336,93
4889968,127
4890648,63
4891264,41
4891892,31
4892520,19
4893148,11
4893780,22
4894400,25
4895032,23
4895656,20
4896280,28
4896908,38
4897528,43
4898160,27
4898784,20
4899408,31
4900040,22
4900656,17
4901288,30
4901916,28
4902536,19
4903168,13
4903792,22
4904424,21
4905056,119
4905724,116
4906404,33
4907032,14
4907648,43
4908280,69
4908904,55
4909536,46
4910168,17
4910784,11
4911416,20
4912044,15
4912668,98
4913300,91
4913920,18
4914552,32
4915180,69
4915804,31
4916436,18
4917060,11
4917688,42
4918316,64
4918936,63
4919564,38
4920188,15
4920820,14
4921448,15
4922068,77
4922696,52
4923320,44
4923944,77
4924572,99
4925192,37
4925824,15
4926444,31
4927068,30
4927700,22
4928324,26
4928952,43
4929580,64
4930200,75
4930828,77
4931452,75
4932084,49
4932712,12
4933332,35
4933960,95
4934584,84
4935208,57
4935840,13
4936456,18
4937084,21
4937708,19
4938332,29
4938964,58
4939588,70
4940216,59
4940848,39
4941464,25
4942092,12
4942716,12
4943348,21
4943980,36
4944600,65
4945228,63
4945856,52
4946480,47
4947108,44
4947728,35
4948356,33
4948984,37
4949608,19
4950236,34
4950860,19
4951492,41
4952124,79
4952744,46
4953376,15
4954000,17
4954628,18
4955260,17
4955880,32
4956512,109
4957192,82
4957808,20
4958436,46
4959064,27
4959692,13
4960324,26
4960944,33
4961572,34
4962196,31
4962824,17
4963452,18
4964072,15
4964700,31
4965324,13
4965948,28
4966580,36
4967200,37
4967828,37
4968460,32
4969080,25
4969708,24
4970332,19
4970964,15
4971592,16
4972212,33
4972840,42
4973464,87
4974088,47
4974716,12
4975336,26
4975968,29
4976592,16
4977216,29
4977844,12
4978464,48
4979092,52
4979724,22
4980344,27
4980972,49
4981596,66
4982228,51
4982860,42
4983480,45
4984112,35
4984736,38
4985360,27
4985992,13
4986608,16
4987240,16
4987864,17
4988488,19
4989116,22
4989736,21
4990368,19
4991000,17
4991620,17
4992252,11
4992876,17
4993504,16
4994132,17
4994752,18
4995380,33
4996008,33
4996632,15
4997260,14
4997880,18
4998508,36
4999132,17
4999756,16
5000388,27
5001008,11
5001636,16
5002268,20
5002888,15
5003516,14
5004144,13
5004772,14
5005404,15
5006024,19
5006656,35
5007280,53
5007904,27
5008536,11
5009152,19
5009784,49
5010408,48
5011032,12
5011664,37
5012280,41
5012912,44
5013544,14
5014160,14
5014792,37
5015416,57
5016048,45
5016680,20
5017296,12
5017928,14
5018552,54
5019176,100
5019860,89
5020480,50
5021108,29
5021740,24
5022360,27
5022992,25
5023616,23
5024248,22
5024876,10
5025496,33
5026128,49
5026752,57
5027376,71
5028008,79
5028624,77
5029256,63
5029880,59
5030504,55
5031132,23
5031760,19
5032388,35
5033020,203
5033692,182
5034372,36
5034992,11
5035620,20
5036248,22
5036876,16
5037504,37
5038136,43
5038756,37
5039388,19
5040012,11
5040640,27
5041272,28
5041892,12
5042520,19
5043148,27
5043772,24
5044404,12
5045024,15
5045656,17
5046284,21
5046904,17
5047536,33
5048160,53
5048792,16
5049420,11
5050040,33
5050672,31
5051296,19
5051920,12
5052552,16
5053172,21
5053800,25
5054428,19
5055052,30
5055684,55
5056304,31
5056936,11
5057568,20
5058184,26
5058816,30
5059440,32
5060072,32
5060700,18
5061320,18
5061952,21
5062576,17
5063200,22
5063832,15
5064448,52
5065080,76
5065704,37
5066328,11
5066960,24
5067576,27
5068208,29
5068840,19
5069460,13
5070088,15
5070712,15
5071344,17
5071976,25
5072596,31
5073228,35
5073852,19
5074480,12
5075108,14
5075728,12
5076360,47
5076988,29
5077612,11
5078244,18
5078872,24
5079504,23
5080132,21
5080752,15
5081384,31
5082008,40
5082632,43
5083264,35
5083880,28
5084512,24
5085136,31
5085760,50
5086392,37
5087012,31
5087640,26
5088272,29
5088896,31
5089528,31
5090152,26
5090784,21
5091412,15
5092032,12
5092664,11
5093288,11
5093912,13
5094544,14
5095164,18
5095796,20
5096420,21
5097044,21
5097676,20
5098296,18
5098928,17
5099560,16
5100176,17
5100808,17
5101432,31
5102064,55
5102696,63
5103316,54
5103948,43
5104572,69
5105200,125
5105884,41
5106504,40
5107136,16
5107772,38
5108392,15
5109024,205
5109704,273
5110376,100
5111052,21
5111672,29
5112308,25
5112940,55
5113564,53
5114196,14
5114820,13
5115448,27
5116080,28
5116700,37
5117332,28
5117964,21
5118588,11
5119220,17
5119848,23
5120480,14
5121108,14
5121728,25
5122356,41
5122976,33
5123600,22
5124228,12
5124848,10
5125476,12
5126100,20
5126720,35
5127352,39
5127968,33
5128596,32
5129228,40
5129848,36
5130476,14
5131100,21
5131728,37
5132360,11
5132976,21
5133604,18
5134228,11
5134856,22
5135484,14
5136104,13
5136732,19
5137356,23
5137980,25
5138608,24
5139232,30
5139860,29
5140492,24
5141112,19
5141740,13
5142364,11
5142996,10
5143624,12
5144248,12
5144876,18
5145500,17
5146124,19
5146756,20
5147376,20
5148004,17
5148628,17
5149252,17
5149884,18
5150504,17
5151132,17
5151764,11
5152384,12
5153012,18
5153636,24
5154268,28
5154896,30
5155516,31
5156144,31
5156772,28
5157396,23
5158024,18
5158648,15
5159276,11
5159900,11
5160528,13
5161156,13
5161776,17
5162404,20
5163036,21
5163656,21
5164284,18
5164908,19
5165540,16
5166168,16
5166788,15
5167416,16
5168040,13
5168664,11
5169292,12
5169912,21
5170544,25
5171168,29
5171792,29
5172420,31
5173040,32
5173668,28
5174300,24
5174920,17
5175548,13
5176176,11
5176804,12
5177432,14
5178056,17
5178684,14
5179312,17
5179936,20
5180564,19
5181184,18
5181816,16
5182440,17
5183060,17
5183692,18
5184312,18
5184940,15
5185572,10
5186192,11
5186820,14
5187444,14
5188076,14
5188704,40
5189328,51
5189956,15
5190584,11
5191208,41
5191836,92
5192456,53
5193084,43
5193712,67
5194336,15
5194964,15
5195588,90
5196220,116
5196904,30
5197520,49
5198148,68
5198776,17
5199400,68
5200032,34
5200648,19
5201276,44
5201900,72
5202528,99
5203156,24
5203780,98
5204412,276
5205092,162
5205764,122
5206440,59
5207068,11
5207688,47
5208316,14
5208940,51
5209572,51
5210204,12
5210824,18
5211456,35
5212080,51
5212704,31
5213336,31
5213952,22
5214584,17
5215208,18
5215832,30
5216464,41
5217080,44
5217712,44
5218340,41
5218960,46
5219592,37
5220216,33
5220844,33
5221476,44
5222096,47
5222728,21
5223348,11
5223976,11
5224604,65
5225224,73
5225852,25
5226476,16
5227100,11
5227732,15
5228356,23
5228988,25
5229616,23
5230240,31
5230872,33
5231496,33
5232128,28
5232756,12
5233376,15
5234008,11
5234632,16
5235256,19
5235884,12
5236504,17
5237132,22
5237764,40
5238384,74
5239016,51
5239640,25
5240272,19
5240900,19
5241520,15
5242152,15
5242776,15
5243400,11
5244028,12
5244648,17
5245276,26
5245900,35
5246524,36
5247152,38
5247776,37
5248408,31
5249036,14
5249656,44
5250284,43
5250904,26
5251532,15
5252164,10
5252784,11
5253412,15
5254036,22
5254660,21
5255292,18
5255912,12
5256540,24
5257164,57
5257788,70
5258416,74
5259032,55
5259664,55
5260292,54
5260912,101
5261592,196
5262260,121
5262932,79
5263556,35
5264176,15
5264804,12
5265432,40
5266052,46
5266680,35
5267304,18
5267932,11
5268560,10
5269184,13
5269812,17
5270436,20
5271060,14
5271688,17
5272308,14
5272936,22
5273560,11
5274188,33
5274816,14
5275432,13
5276064,17
5276692,40
5277312,85
5277940,35
5278564,21
5279196,26
5279828,16
5280448,56
5281076,62
5281700,65
5282324,71
5282952,50
5283568,16
5284200,32
5284820,62
5285444,75
5286072,39
5286696,25
5287324,20
5287952,16
5288576,21
5289204,24
5289828,24
5290456,22
5291084,17
5291704,11
5292332,11
5292956,12
5293580,12
5294212,10
5294832,13
5295460,14
5296084,16
5296708,19
5297336,19
5297956,16
5298584,20
5299212,18
5299832,20
5300460,17
5301084,16
5301716,15
5302344,11
5302964,15
5303592,20
5304220,22
5304844,23
5305472,22
5306092,15
5306720,13
5307344,20
5307968,18
5308596,24
5309216,25
5309844,16
5310476,40
5311096,44
5311728,84
5312352,45
5312980,16
5313612,24
5314232,27
5314864,24
5315484,24
5316108,24
5316740,24
5317360,25
5317988,17
5318616,12
5319240,17
5319868,26
5320488,33
5321116,27
5321748,28
5322368,37
5322996,31
5323624,23
5324252,19
5324884,11
5325500,15
5326128,20
5326752,24
5327376,32
5328004,34
5328620,38
5329252,19
5329872,34
5330496,35
5331128,12
5331744,14
5332372,33
5333004,22
5333624,19
5334252,11
5334876,11
5335508,11
5336136,10
5336760,16
5337388,15
5338012,25
5338636,52
5339268,62
5339888,51
5340516,33
5341140,25
5341764,23
5342396,14
5343016,11
5343644,18
5344276,26
5344896,32
5345524,26
5346148,19
5346776,14
5347408,22
5348024,14
5348652,20
5349276,45
5349900,62
5350532,64
5351152,67
5351780,63
5352404,59
5353028,27
5353660,72
5354280,82
5354908,51
5355540,62
5356160,101
5356840,70
5357456,21
5358088,23
5358716,72
5359336,63
5359968,12
5360592,24
5361216,44
5361844,48
5362464,47
5363092,50
5363724,19
5364344,11
5364972,13
5365596,16
5366228,17
5366860,14
5367480,40
5368108,29
5368732,85
5369356,89
5369988,18
5370608,30
5371236,24
5371860,14
5372484,14
5373116,16
5373736,27
5374368,48
5374996,84
5375616,58
5376248,12
5376868,21
5377496,24
5378128,30
5378744,28
5379372,33
5379996,21
5380620,19
5381248,10
5381872,23
5382500,41
5383124,74
5383748,54
5384376,30
5385000,39
5385628,57
5386260,23
5386880,17
5387508,21
5388132,45
5388764,39
5389392,45
5390012,47
5390640,41
5391264,12
5391888,23
5392516,136
5393188,156
5393868,74
5394496,34
5395112,34
5395744,17
5396368,45
5396996,47
5397628,40
5398248,35
5398876,18
5399504,11
5400128,11
5400756,16
5401376,19
5402008,16
5402636,38
5403256,47
5403884,29
5404508,19
5405140,15
5405772,16
5406392,47
5407024,160
5407700,114
5408372,33
5408996,51
5409620,79
5410248,82
5410880,70
5411496,77
5412124,51
5412748,92
5413380,175
5414060,102
5414732,36
5415356,13
5415988,24
5416608,26
5417236,42
5417860,38
5418492,23
5419120,12
5419740,15
5420368,19
5420992,23
5421616,31
5422248,31
5422864,32
5423496,30
5424120,20
5424744,14
5425372,33
5426000,38
5426628,29
5427260,28
5427880,31
5428508,21
5429132,45
5429760,55
5430388,26
5431008,12
5431636,23
5432264,29
5432888,24
5433516,12
5434136,11
5434764,11
5435392,10
5436016,12
5436644,16
5437272,16
5437900,39
5438532,36
5439152,23
5439784,29
5440408,59
5441032,46
5441660,18
5442280,33
5442908,33
5443532,27
5444156,23
5444784,53
5445404,43
5446032,45
5446660,47
5447280,15
5447908,37
5448532,30
5449164,39
5449792,43
5450408,13
5451036,27
5451660,21
5452292,15
5452920,12
5453544,19
5454172,22
5454796,19
5455420,18
5456048,24
5456672,24
5457300,17
5457928,10
5458552,12
5459180,11
5459804,12
5460436,35
5461064,36
5461688,36
5462316,28
5462944,27
5463568,41
5464196,82
5464816,43
5465444,11
5466068,22
5466692,38
5467324,57
5467944,73
5468576,75
5469204,77
5469824,65
5470452,43
5471076,15
5471708,80
5472340,130
5473012,151
5473692,93
5474316,69
5474936,121
5475620,60
5476240,12
5476868,24
5477500,28
5478120,35
5478752,34
5479376,29
5480000,29
5480628,31
5481248,32
5481876,33
5482508,30
5483128,28
5483760,29
5484384,53
5485012,65
5485644,40
5486264,22
5486892,24
5487520,22
5488144,69
5488772,150
5489444,112
5490120,33
5490748,24
5491368,44
5491996,21
5492620,32
5493252,31
5493880,15
5494504,17
5495132,34
5495760,60
5496384,51
5497012,18
5497632,13
5498260,24
5498892,48
5499512,44
5500144,33
5500768,25
5501400,13
5502028,14
5502648,20
5503280,25
5503904,27
5504528,29
5505160,34
5505776,37
5506408,35
5507032,47
5507656,43
5508284,23
5508904,11
5509532,31
5510164,55
5510784,49
5511412,23
5512040,16
5512668,18
5513300,14
5513920,27
5514548,32
5515176,31
5515800,31
5516432,38
5517052,17
5517680,12
5518304,16
5518928,36
5519560,53
5520176,42
5520808,27
5521436,19
5522056,21
5522684,25
5523312,21
5523940,17
5524572,15
5525192,19
5525824,14
5526448,11
5527072,20
5527704,31
5528320,36
5528952,32
5529576,38
5530204,39
5530832,21
5531456,16
5532084,35
5532716,40
5533336,15
5533964,14
5534592,18
5535220,19
5535852,12
5536472,17
5537100,24
5537724,32
5538348,42
5538980,50
5539600,35
5540228,16
5540852,12
5541476,16
5542108,28
5542732,51
5543364,48
5543992,34
5544616,29
5545248,34
5545872,15
5546500,21
5547132,12
5547752,30
5548384,43
5549008,21
5549632,53
5550264,95
5550880,56
5551508,59
5552140,62
5552760,32
5553392,15
5554016,20
5554644,20
5555276,16
5555896,29
5556524,35
5557152,35
5557776,17
5558404,18
5559024,11
5559656,23
5560280,38
5560904,66
5561536,68
5562152,33
5562784,38
5563416,14
5564032,30
5564664,35
5565288,38
5565920,37
5566548,34
5567168,28
5567800,27
5568424,19
5569048,11
5569680,22
5570300,17
5570932,19
5571556,28
5572180,29
5572808,48
5573428,57
5574056,26
5574688,10
5575304,12
5575936,16
5576560,19
5577188,17
5577820,18
5578440,25
5579068,45
5579696,47
5580320,49
5580952,53
5581568,38
5582196,12
5582820,16
5583444,79
5584076,68
5584696,27
5585324,17
5585956,22
5586576,25
5587204,20
5587828,22
5588460,19
5589092,10
5589712,12
5590344,13
5590968,11
5591592,11
5592224,19
5592840,33
5593472,55
5594096,17
5594720,20
5595352,16
5595976,14
5596608,25
5597236,15
5597856,11
5598488,24
5599112,27
5599744,32
5600376,29
5600992,25
5601624,21
5602248,30
5602872,27
5603500,21
5604120,15
5604748,24
5605376,26
5606000,74
5606632,99
5607252,63
5607884,50
5608516,27
5609136,13
5609764,11
5610388,14
5611016,15
5611648,22
5612264,25
5612892,48
5613516,71
5614140,83
5614772,76
5615392,69
5616024,61
5616652,23
5617272,61
5617900,104
5618580,49
5619200,15
5619832,17
5620452,45
5621080,49
5621704,24
5622328,32
5622960,21
5623576,29
5624208,72
5624836,54
5625456,109
5626140,142
5626812,44
5627432,25
5628064,19
5628680,13
5629312,26
5629936,33
5630560,31
5631192,26
5631816,27
5632448,32
5633076,32
5633696,29
5634324,29
5634948,28
5635576,21
5636204,16
5636824,15
5637452,14
5638076,53
5638700,81
5639328,68
5639952,37
5640584,53
5641204,11
5641828,12
5642460,10
5643084,17
5643712,18
5644344,17
5644960,18
5645592,22
5646216,29
5646844,38
5647476,27
5648096,11
5648724,15
5649348,18
5649972,18
5650604,18
5651224,14
5651852,12
5652476,16
5653104,26
5653732,31
5654360,35
5654988,32
5655620,30
5656240,33
5656868,29
5657496,21
5658120,16
5658748,11
5659368,13
5659996,22
5660624,29
5661248,42
5661876,52
5662496,44
5663124,32
5663756,18
5664376,37
5665004,32
5665628,33
5666260,21
5666888,13
5667504,42
5668136,52
5668760,45
5669384,29
5670012,15
5670632,19
5671260,41
5671888,35
5672512,18
5673140,13
5673760,22
5674388,35
5675020,78
5675640,92
5676268,69
5676896,47
5677524,12
5678156,34
5678776,45
5679408,43
5680032,46
5680656,37
5681284,16
5681904,16
5682536,21
5683160,13
5683784,22
5684416,23
5685032,19
5685660,16
5686292,23
5686912,30
5687544,14
5688168,15
5688796,16
5689428,10
5690048,18
5690676,49
5691304,66
5691928,45
5692560,26
5693176,11
5693808,18
5694432,34
5695056,45
5695688,43
5696304,18
5696932,30
5697564,34
5698184,33
5698816,37
5699436,47
5700068,59
5700700,60
5701320,49
5701948,14
5702576,78
5703200,103
5703880,46
5704504,23
5705132,27
5705764,27
5706384,45
5707016,59
5707640,24
5708272,60
5708900,32
5709520,11
5710148,21
5710776,27
5711400,31
5712032,35
5712648,34
5713280,39
5713904,35
5714528,35
5715160,32
5715784,12
5716416,11
5717048,11
5717664,15
5718296,33
5718924,30
5719556,26
5720184,18
5720808,19
5721440,26
5722064,15
5722688,50
5723320,58
5723940,53
5724568,58
5725200,23
5725820,54
5726452,86
5727076,31
5727708,17
5728340,36
5728960,41
5729592,29
5730216,17
5730840,11
5731472,16
5732092,38
5732724,51
5733348,48
5733972,19
5734608,14
5735224,21
5735852,18
5736480,20
5737104,24
5737732,18
5738356,15
5738988,12
5739616,28
5740240,62
5740868,24
5741492,13
5742116,34
5742748,48
5743368,17
5743996,11
5744624,14
5745248,19
5745876,20
5746504,20
5747132,18
5747764,15
5748384,15
5749012,25
5749640,29
5750268,29
5750900,20
5751520,13
5752152,11
5752776,19
5753400,23
5754032,27
5754648,27
5755280,32
5755908,33
5756528,29
5757160,20
5757784,15
5758412,15
5759044,12
5759664,13
5760296,14
5760916,16
5761540,27
5762172,54
5762792,94
5763420,67
5764044,71
5764668,76
5765296,29
5765912,40
5766540,131
5767224,90
5767840,49
5768468,60
5769092,39
5769720,25
5770352,18
5770968,19
5771596,25
5772220,26
5772844,20
5773476,10
5774096,11
5774724,11
5775348,10
5775976,11
5776604,11
5777228,11
5777856,13
5778488,15
5779104,24
5779736,28
5780360,32
5780988,27
5781620,32
5782240,37
5782868,37
5783496,34
5784120,30
5784748,28
5785368,27
5786000,27
5786620,18
5787248,57
5787876,102
5788552,78
5789176,57
5789804,33
5790424,17
5791052,13
5791680,49
5792304,69
5792932,29
5793552,12
5794180,19
5794808,27
5795432,28
5796060,21
5796684,26
5797316,31
5797944,13
5798568,11
5799196,22
5799820,19
5800452,14
5801080,16
5801704,13
5802332,12
5802956,16
5803584,23
5804212,32
5804832,54
5805460,34
5806092,24
5806712,24
5807344,24
5807968,22
5808600,13
5809228,19
5809848,14
5810476,35
5811104,42
5811728,43
5812356,34
5812976,24
5813604,13
5814232,18
5814856,41
5815488,22
5816104,16
5816736,19
5817364,12
5817984,14
5818612,11
5819240,12
5819868,16
5820500,16
5821120,17
5821752,17
5822376,15
5823000,11
5823632,15
5824252,62
5824880,36
5825504,11
5826128,11
5826756,12
5827376,16
5828004,15
5828636,14
5829256,33
5829884,38
5830512,33
5831140,27
5831772,32
5832392,21
5833024,21
5833648,33
5834272,25
5834904,12
5835520,12
5836152,18
5836776,24
5837400,25
5838032,25
5838652,20
5839280,19
5839912,20
5840528,14
5841160,11
5841784,11
5842412,11
5843044,10
5843664,14
5844292,19
5844920,15
5845540,25
5846172,15
5846792,33
5847424,33
5848048,35
5848672,45
5849300,40
5849924,13
5850556,10
5851188,13
5851808,27
5852440,29
5853064,48
5853692,64
5854324,50
5854944,35
5855576,22
5856200,11
5856824,11
5857452,10
5858072,12
5858700,13
5859328,16
5859952,19
5860584,20
5861208,16
5861836,25
5862468,34
5863088,41
5863716,18
5864340,12
5864968,22
5865596,28
5866216,17
5866848,29
5867472,56
5868096,41
5868728,11
5869348,14
5869976,27
5870608,14
5871228,14
5871860,15
5872484,24
5873116,26
5873748,14
5874368,54
5875000,97
5875624,53
5876248,14
5876880,12
5877496,15
5878128,27
5878752,26
5879376,22
5880008,19
5880624,30
5881256,38
5881888,39
5882504,35
5883136,25
5883760,19
5884392,21
5885024,14
5885640,22
5886272,42
5886900,42
5887524,37
5888156,28
5888776,23
5889404,23
5890028,23
5890652,17
5891284,13
5891908,18
5892536,11
5893168,11
5893788,12
5894416,14
5895040,20
5895672,29
5896304,41
5896920,37
5897552,23
5898180,20
5898804,27
5899432,29
5900056,15
5900684,29
5901308,12
5901936,27
5902564,15
5903188,14
5903820,14
5904452,14
5905072,15
5905700,51
5906328,63
5906952,27
5907580,17
5908200,41
5908828,14
5909452,40
5910076,50
5910708,61
5911328,67
5911960,51
5912592,64
5913208,24
5913840,32
5914464,41
5915092,38
5915724,28
5916344,29
5916976,32
5917600,27
5918224,18
5918856,12
5919472,14
5920104,14
5920724,38
5921348,38
5921980,26
5922600,24
5923228,25
5923860,17
5924480,24
5925108,40
5925732,21
5926364,15
5926996,22
5927616,24
5928248,21
5928872,18
5929496,20
5930124,20
5930744,19
5931376,21
5932000,17
5932624,17
5933256,20
5933872,19
5934504,13
5935136,12
5935752,20
5936384,29
5937008,29
5937640,30
5938268,36
5938888,51
5939520,35
5940140,17
5940764,11
5941396,26
5942016,32
5942644,37
5943268,23
5943892,14
5944524,14
5945144,26
5945772,25
5946404,14
5947024,24
5947652,25
5948280,11
5948908,11
5949540,12
5950160,11
5950788,15
5951416,27
5952040,20
5952668,17
5953288,26
5953916,23
5954540,15
5955168,55
5955796,77
5956424,55
5957052,51
5957684,52
5958304,38
5958936,13
5959560,31
5960192,33
5960820,18
5961440,32
5962072,24
5962696,15
5963320,19
5963952,22
5964568,19
5965200,18
5965828,18
5966448,23
5967076,21
5967704,19
5968332,26
5968964,38
5969584,30
5970216,20
5970840,21
5971464,33
5972096,30
5972712,86
5973344,100
5974024,33
5974648,16
5975280,11
5975904,17
5976536,13
5977164,13
5977784,35
5978416,62
5979040,75
5979664,42
5980296,25
5980912,46
5981544,55
5982168,47
5982792,37
5983424,33
5984040,25
5984672,12
5985300,24
5985920,33
5986548,25
5987176,25
5987804,28
5988436,28
5989056,20
5989688,49
5990312,56
5990936,15
5991568,11
5992188,10
5992816,10
5993440,12
5994068,12
5994696,14
5995320,21
5995952,25
5996584,30
5997200,22
5997832,28
5998456,26
5999088,32
5999720,28
6000336,23
6000968,26
6001592,35
6002216,47
6002848,35
6003464,24
6004092,19
6004716,27
6005344,61
6005972,56
6006600,95
6007228,122
6007912,99
6008528,34
6009160,16
6009784,17
6010408,19
6011040,37
6011656,34
6012288,29
6012912,19
6013536,15
6014168,11
6014792,17
6015424,29
6016056,20
6016672,21
6017300,16
6017924,11
6018556,13
6019188,18
6019808,24
6020440,25
6021064,23
6021688,19
6022316,22
6022936,17
6023568,10
6024196,18
6024816,28
6025444,33
6026072,29
6026700,36
6027332,44
6027952,47
6028584,37
6029208,71
6029832,27
6030464,11
6031080,16
6031712,14
6032336,37
6032960,46
6033588,14
6034208,41
6034840,35
6035472,12
6036092,58
6036720,72
6037348,47
6037980,26
6038608,23
6039232,22
6039864,21
6040488,13
6041112,11
6041744,10
6042360,11
6042992,12
6043616,13
6044240,15
6044868,17
6045488,19
6046120,23
6046748,23
6047368,23
6048000,23
6048620,27
6049252,29
6049884,29
6050504,18
6051136,11
6051760,22
6052384,23
6053016,23
6053632,18
6054264,18
6054888,20
6055512,22
6056144,78
6056768,136
6057452,72
6058080,25
6058696,12
6059328,31
6059956,17
6060580,25
6061212,39
6061832,14
6062464,16
6063088,31
6063716,16
6064344,34
6064972,55
6065600,49
6066228,46
6066848,38
6067480,39
6068104,17
6068736,95
6069364,86
6069984,43
6070616,38
6071240,41
6071864,34
6072496,28
6073112,24
6073744,20
6074376,10
6074996,15
6075628,17
6076252,11
6076884,13
6077516,26
6078136,28
6078768,20
6079392,17
6080016,19
6080648,14
6081264,15
6081896,11
6082520,17
6083144,27
6083776,32
6084392,30
6085024,16
6085652,14
6086272,21
6086904,18
6087528,21
6088156,25
6088788,34
6089408,35
6090040,33
6090664,20
6091288,11
6091920,16
6092536,19
6093168,25
6093792,35
6094416,18
6095048,13
6095668,24
6096296,37
6096928,45
6097548,39
6098176,30
6098804,40
6099432,70
6100064,79
6100680,34
6101312,29
6101936,51
6102560,130
6103244,151
6103916,128
6104596,121
6105276,92
6105896,76
6106528,24
6107160,14
6107776,11
6108408,15
6109032,18
6109664,31
6110296,28
6110916,31
6111548,26
6112172,27
6112800,29
6113428,36
6114048,46
6114680,51
6115304,50
6115928,47
6116560,47
6117180,20
6117808,42
6118440,64
6119064,64
6119696,47
6120320,32
6120952,29
6121584,27
6122200,30
6122832,27
6123460,17
6124084,11
6124716,10
6125336,11
6125968,10
6126600,11
6127224,13
6127856,21
6128480,36
6129112,69
6129744,89
6130364,83
6130996,60
6131620,48
6132248,17
6132880,70
6133500,131
6134184,125
6134860,60
6135480,28
6136112,15
6136740,13
6137364,14
6138000,15
6138616,26
6139248,29
6139876,19
6140500,15
6141132,11
6141756,12
6142388,13
6143020,22
6143644,18
6144276,17
6144900,17
6145528,17
6146156,16
6146776,15
6147404,16
6148028,25
6148652,24
6149280,19
6149904,19
6150532,23
6151156,32
6151780,35
6152412,28
6153036,26
6153664,18
6154296,14
6154912,57
6155540,87
6156164,94
6156796,38
6157428,28
6158048,46
6158676,28
6159304,73
6159928,32
6160560,11
6161176,58
6161804,64
6162432,18
6163056,19
6163688,27
6164312,29
6164940,28
6165572,22
6166192,23
6166824,21
6167448,21
6168072,20
6168700,21
6169320,25
6169952,27
6170572,25
6171200,15
6171828,22
6172448,26
6173076,62
6173708,52
6174328,25
6174960,39
6175584,40
6176212,36
6176844,56
6177464,16
6178092,19
6178716,35
6179344,73
6179972,58
6180592,47
6181224,29
6181848,24
6182472,37
6183100,15
6183720,15
6184352,17
6184980,21
6185600,23
6186228,22
6186852,20
6187484,14
6188116,20
6188736,29
6189368,35
6189992,29
6190616,19
6191248,12
6191864,16
6192496,14
6193120,13
6193744,11
6194376,16
6194992,18
6195624,24
6196256,15
6196876,16
6197504,17
6198128,23
6198760,20
6199388,17
6200008,34
6200636,43
6201264,35
6201888,21
6202520,23
6203136,29
6203768,28
6204392,47
6205016,50
6205648,27
6206264,26
6206896,33
6207528,70
6208144,53
6208776,19
6209400,31
6210028,41
6210660,16
6211280,15
6211908,16
6212536,21
6213160,22
6213792,20
6214408,24
6215040,27
6215664,27
6216288,29
6216920,24
6217544,28
6218176,34
6218808,35
6219424,27
6220056,14
6220684,18
6221316,23
6221944,40
6222568,104
6223252,92
6223880,40
6224500,12
6225128,14
6225756,31
6226388,23
6227016,10
6227640,16
6228268,27
6228896,39
6229520,33
6230148,31
6230768,35
6231400,33
6232024,25
6232648,16
6233280,12
6233896,13
6234528,21
6235156,30
6235776,44
6236408,54
6237032,30
6237664,17
6238292,50
6238912,77
6239544,104
6240220,134
6240892,78
6241520,45
6242144,19
6242772,31
6243404,32
6244024,31
6244652,23
6245280,15
6245904,15
6246536,22
6247152,29
6247780,28
6248404,28
6249028,24
6249660,24
6250280,19
6250908,11
6251540,12
6252160,19
6252788,29
6253416,31
6254044,33
6254676,34
6255296,34
6255928,33
6256552,27
6257176,15
6257808,10
6258424,11
6259052,11
6259680,14
6260304,13
6260932,17
6261552,21
6262184,25
